frame_id,dx,dy,dz,angle,x,y,z,qx,qy,qz,qw
1,-0.10161320681525354,-0.003563407988754763,0.0018537008720309611,-0.035053989831058494,-1.2469855732744037,0.9576946625935476,0.8871738645302866,-0.035053989831058494,0.0,0.0,-0.08752284650002429,0.9961625125151685
2,-0.10053773560508472,-0.003563407988754763,0.00185370087203085,-0.03542865695984744,-1.1453723664591502,0.9612580705823024,0.8853201636582556,-0.03542865695984744,0.0,0.0,-0.08845588134058079,0.9960800957032828
3,-0.09892452878983082,-0.003563407988754763,0.0018537008720309611,-0.03600591280296716,-1.0448346308540655,0.9624458732452206,0.8834664627862248,-0.03600591280296716,0.0,0.0,-0.0898932713688782,0.9959514043178016
4,-0.09677358636949251,-0.003563407988754763,0.00185370087203085,-0.036805485128841506,-0.9459101020642346,0.9600702679193842,0.8816127619141938,-0.036805485128841506,0.0,0.0,-0.09188392840078316,0.9957697242342929
5,-0.09418812783099895,-0.003563407988754763,0.0018537008720309611,-0.037814843502030016,-0.8491365156947421,0.9529434519418747,0.879759061042163,-0.037814843502030016,0.0,0.0,-0.09439635446991214,0.9955346946554855
6,-0.09158103112206739,-0.003563407988754763,0.00185370087203085,-0.038890273103968906,-0.7549483878637432,0.9401056238836153,0.877905360170132,-0.038890273103968906,0.0,0.0,-0.09707257877779933,0.9952773053021092
7,-0.08905551572962744,-0.003563407988754763,0.0018537008720309611,-0.039991998619923856,-0.6633673567416758,0.9215089872508949,0.8760516592981011,-0.039991998619923856,0.0,0.0,-0.09981351311059657,0.9950061620917333
8,-0.08661158165367894,-0.003563407988754763,0.00185370087203085,-0.04111920566024617,-0.5743118410120484,0.8973337467838435,0.8741979584260702,-0.04111920566024617,0.0,0.0,-0.10261705795672676,0.9947209354468749
9,-0.08424922889422198,-0.003563407988754763,0.00185370087203085,-0.04227083605184163,-0.4877002593583694,0.8677601072225908,0.8723442575540393,-0.04227083605184163,0.0,0.0,-0.10548050585115659,0.994421370891326
10,-0.08196845745125642,-0.003563407988754763,0.0018537008720309611,-0.043445562107112874,-0.40345103046414743,0.8329682733072673,0.8704905566820085,-0.043445562107112874,0.0,0.0,-0.10840047851066398,0.9941073062092739
11,-0.07976926732478251,-0.003563407988754763,0.00185370087203085,-0.04464176038480218,-0.321482573012891,0.793138449778003,0.8686368558099775,-0.04464176038480218,0.0,0.0,-0.11137286298250641,0.993778690348651
12,-0.0776516585147996,-0.003563407988754763,0.0018537008720309611,-0.04585748541290045,-0.2417133056881085,0.7484508413749277,0.8667831549379467,-0.04585748541290045,0.0,0.0,-0.11439274799939347,0.9934356039548549
13,-0.07561563102130882,-0.003563407988754763,0.00185370087203085,-0.04709044395993591,-0.1640616471733089,0.6990856528381718,0.8649294540659157,-0.04709044395993591,0.0,0.0,-0.11745436201554815,0.9930782813270667
14,-0.07366118484430892,-0.003563407988754763,0.0018537008720309611,-0.0483379705660103,-0.08844601615200008,0.6452230889078653,0.8630757531938849,-0.0483379705660103,0.0,0.0,-0.12055101469930013,0.9927071334764191
15,-0.07178831998380104,-0.003563407988754763,0.00185370087203085,-0.04959700517525155,-0.014784831307691168,0.5870433543241381,0.8612220523218539,-0.04959700517525155,0.0,0.0,-0.12367504396748073,0.9923227718336618
16,-0.06999703643978417,-0.003563407988754763,0.00185370087203085,-0.0508640738417635,0.05700348867610988,0.5247266538271205,0.859368351449823,-0.0508640738417635,0.0,0.0,-0.1268177709527482,0.9919260320057016
17,-0.06828733421225902,-0.003563407988754763,0.0018537008720309611,-0.05213527360463065,0.12700052511589405,0.4584531921569423,0.8575146505777922,-0.05213527360463065,0.0,0.0,-0.12996946557921965,0.9915179968195494
18,-0.06665921330122548,-0.003563407988754763,0.00185370087203085,-0.05340626273533869,0.19528785932815307,0.388403174053734,0.8556609497057612,-0.05340626273533869,0.0,0.0,-0.13311932566293044,0.9911000177252781
19,-0.06511267370668289,-0.003563407988754763,0.0018537008720309611,-0.05467225764237725,0.26194707262937855,0.3147568042576252,0.8538072488337304,-0.05467225764237725,0.0,0.0,-0.13625547262575596,0.9906737334660346
20,-0.06364771542863251,-0.003563407988754763,0.00185370087203085,-0.05592803776064969,0.32705974633606144,0.2376942875087463,0.8519535479616994,-0.05592803776064969,0.0,0.0,-0.13936496698564962,0.9902410847753635
21,-0.062264338467073244,-0.003563407988754763,0.0018537008720309611,-0.05716795974433132,0.39070746176469395,0.15739582854722706,0.8500998470896686,-0.05716795974433132,0.0,0.0,-0.14243384673139312,0.9898043237455058
22,-0.06096254282200542,-0.003563407988754763,0.00185370087203085,-0.058385982207423213,0.4529718002317672,0.07404163211319781,0.8482461462176376,-0.058385982207423213,0.0,0.0,-0.14544719147558988,0.989366016442784
23,-0.059742328493428976,-0.003563407988754763,0.0018537008720309611,-0.05957570210383997,0.5139343430537726,-0.012188097053211527,0.8463924453456068,-0.05957570210383997,0.0,0.0,-0.14838921487756,0.9889290373469783
24,-0.05860369548134403,-0.003563407988754763,0.00185370087203085,-0.06073040359798107,0.5736766715472016,-0.1011131542118707,0.8445387444735758,-0.06073040359798107,0.0,0.0,-0.15124338721613328,0.9884965542799786
25,-0.057546643785750695,-0.003563407988754763,0.00185370087203085,-0.061843119941031297,0.6322803670285456,-0.1925533346226493,0.842685043601545,-0.061843119941031297,0.0,0.0,-0.15399258915960654,0.9880720026819506
26,-0.0565711734066493,-0.003563407988754763,0.0018537008720309611,-0.06290670843703967,0.6898270108142963,-0.28632843354541804,0.8408313427295141,-0.06290670843703967,0.0,0.0,-0.15661929672862884,0.9876590484029546
27,-0.05567728434403851,-0.003563407988754763,0.00185370087203085,-0.06391393806299914,0.7463981842209456,-0.3822582462400468,0.8389776418574831,-0.06391393806299914,0.0,0.0,-0.1591057961976684,0.987261538608846
28,-0.05486497659791956,-0.003563407988754763,0.0018537008720309611,-0.06485758871435723,0.8020754685649841,-0.4801625679664049,0.8371239409854523,-0.06485758871435723,0.0,0.0,-0.16143442627245422,0.9868834409463376
29,-0.05413425016829221,-0.003563407988754763,0.00185370087203085,-0.06573056040696018,0.8569404451629037,-0.5798611939843629,0.8352702401134213,-0.06573056040696018,0.0,0.0,-0.1635878433765869,0.9865287717544772
30,-0.053485105055156135,-0.003563407988754763,0.0018537008720309611,-0.06652599011294151,0.9110746953311959,-0.6811739195537897,0.8334165392413905,-0.06652599011294151,0.0,0.0,-0.1655493043627421,0.9862015148158171
31,-0.05291754125851167,-0.003563407988754763,0.00185370087203085,-0.06723737328432208,0.964559800386352,-0.7839205399345568,0.8315628383693595,-0.06723737328432208,0.0,0.0,-0.16730295953231414,0.9859055328639397
32,-0.052431558778359255,-0.003563407988754763,0.0018537008720309611,-0.06785868657209326,1.0174773416448637,-0.8879208503865323,0.8297091374973287,-0.06785868657209326,0.0,0.0,-0.16883414761171375,0.9856444747474751
33,-0.05202715761469712,-0.003563407988754763,0.00185370087203085,-0.06838450782992334,1.069908900423223,-0.9929946461695879,0.8278554366252977,-0.06838450782992334,0.0,0.0,-0.17012968340535817,0.9854216817304116
34,-0.05170433776752681,-0.003563407988754763,0.00185370087203085,-0.06881012924657683,1.12193605803792,-1.0989617225435924,0.8260017357532669,-0.06881012924657683,0.0,0.0,-0.17117812832669438,0.9852400968203485
35,-0.051463099236849,-0.003563407988754763,0.0018537008720309611,-0.06913165941729885,1.1736403958054469,-1.205641874768416,0.824148034881236,-0.06913165941729885,0.0,0.0,-0.17197003398062669,0.9851021812039105
36,-0.05130344202266124,-0.003563407988754763,0.00185370087203085,-0.06934611036546218,1.2251034950422959,-1.3128548981039287,0.822294334009205,-0.06934611036546218,0.0,0.0,-0.17249814948242553,0.985009841791004
37,-0.05122536612496642,-0.003563407988754763,0.0018537008720309611,-0.06945146596768284,1.2764069370649571,-1.4204205878100007,0.8204406331371742,-0.06945146596768284,0.0,0.0,-0.17275758425869042,0.9849643735085556
38,-0.05122887154376188,-0.003563407988754763,0.00185370087203085,-0.06944672890387762,1.3276323031899235,-1.5281587391465012,0.8185869322651432,-0.06944672890387762,0.0,0.0,-0.17274591964886826,0.9849664193487343
39,-0.05131395827904872,-0.003563407988754763,0.0018537008720309611,-0.06933194411308545,1.3788611747336854,-1.6358891473733008,0.8167332313931124,-0.06933194411308545,0.0,0.0,-0.17246326462922254,0.9850159503040703
40,-0.051480626330828505,-0.003563407988754763,0.00185370087203085,-0.06910819773327856,1.4301751330127341,-1.7434316077502687,0.8148795305210814,-0.06910819773327856,0.0,0.0,-0.17191225329458643,0.9851122662758687
41,-0.0517288756990979,-0.003563407988754763,0.00185370087203085,-0.06877759157152033,1.4816557593435626,-1.8506059155372767,0.8130258296490506,-0.06877759157152033,0.0,0.0,-0.17109798420514305,0.9852540179065177
42,-0.05205870638385979,-0.003563407988754763,0.0018537008720309611,-0.06834319421577435,1.5333846350426605,-1.9572318659941914,0.8111721287770197,-0.06834319421577435,0.0,0.0,-0.17002790417026947,0.9854392481545808
43,-0.05247011838511417,-0.003563407988754763,0.00185370087203085,-0.06780897088767854,1.5854433414265203,-2.0631292543808857,0.8093184279049888,-0.06780897088767854,0.0,0.0,-0.16871164133384128,0.9856654513974005
44,-0.0529631117028575,-0.003563407988754763,0.0018537008720309611,-0.06717969498038041,1.6379134598116345,-2.1681178759572286,0.8074647270329579,-0.06717969498038041,0.0,0.0,-0.16716079439603457,0.9859296469915522
45,-0.05353768633709444,-0.003563407988754763,0.00185370087203085,-0.06646084487542533,1.690876571514492,-2.27201752598309,0.805611026160927,-0.06646084487542533,0.0,0.0,-0.1653886863381015,0.9862284636083858
46,-0.05419384228782209,-0.003563407988754763,0.0018537008720309611,-0.06565849005422594,1.7444142578515864,-2.3746479997183405,0.8037573252888961,-0.06565849005422594,0.0,0.0,-0.16341009203083703,0.986558230325242
47,-0.054931579555041354,-0.003563407988754763,0.00185370087203085,-0.06477917069990462,1.7986081001394085,-2.4758290924228463,0.8019036244168651,-0.06477917069990462,0.0,0.0,-0.161240949571598,0.986915070399297
48,-0.05575089813875245,-0.003563407988754763,0.00185370087203085,-0.06382977493224355,1.8535396796944499,-2.5753805993564836,0.8000499235448343,-0.06382977493224355,0.0,0.0,-0.15889806512236895,0.9872949938596708
49,-0.05665179803895337,-0.003563407988754763,0.0018537008720309611,-0.06281741755680714,1.9092905778332023,-2.673122315779117,0.7981962226728034,-0.06281741755680714,0.0,0.0,-0.1563988204637563,0.9876939854821156
50,-0.057634279255648124,-0.003563407988754763,0.00185370087203085,-0.061749323777844235,1.9659423758721557,-2.7688740369506193,0.7963425218007725,-0.061749323777844235,0.0,0.0,-0.15376089152102043,0.9881080853017351
51,-0.0586983417888316,-0.003563407988754763,0.0018537008720309611,-0.06063272076999026,2.023576655127804,-2.8624555581308586,0.7944888209287416,-0.06063272076999026,0.0,0.0,-0.1510019848614716,0.9885334595085267
52,-0.05984398563851023,-0.003563407988754763,0.00185370087203085,-0.0594747393755351,2.0822749969166354,-2.953686674579708,0.7926351200567107,-0.0594747393755351,0.0,0.0,-0.14813959771905497,0.988966460294603
53,-0.06107121080467781,-0.003563407988754763,0.0018537008720309611,-0.05828232754025454,2.1421189825551457,-3.042387181557034,0.7907814191846798,-0.05828232754025454,0.0,0.0,-0.1451908055820821,0.9894036739240591
54,-0.06238001728733655,-0.003563407988754763,0.00185370087203085,-0.05706217646303164,2.2031901933598235,-3.1283768743227074,0.7889277183126489,-0.05706217646303164,0.0,0.0,-0.14217207988063907,0.9898419569317181
55,-0.06377040508648824,-0.003563407988754763,0.0018537008720309611,-0.05582065984730203,2.26557021064716,-3.2114755481365984,0.787074017440618,-0.05582065984730203,0.0,0.0,-0.13909913691385553,0.9902784608936117
56,-0.0652423742021302,-0.003563407988754763,0.00185370087203085,-0.05456378612954421,2.3293406157336483,-3.2915029982585775,0.785220316568587,-0.05456378612954421,0.0,0.0,-0.13598681792259326,0.990710646632652
57,-0.0667959246342642,-0.003563407988754763,0.0018537008720309611,-0.05329716313692973,2.3945829899357784,-3.368279019948515,0.7833666156965562,-0.05329716313692973,0.0,0.0,-0.13284899917998236,0.9911362890222903
58,-0.06843105638288938,-0.003563407988754763,0.00185370087203085,-0.05202597429883439,2.4613789145700427,-3.4416234084662785,0.7815129148245252,-0.05202597429883439,0.0,0.0,-0.12969853015868898,0.9915534737343598
59,-0.07014776944800749,-0.003563407988754763,0.00185370087203085,-0.050754965303911374,2.529809970952932,-3.5113559590717394,0.7796592139524944,-0.050754965303911374,0.0,0.0,-0.12654719724069166,0.9919605873574441
60,-0.07194606382961499,-0.003563407988754763,0.0018537008720309611,-0.049488439949199374,2.5999577404009395,-3.5772964670247687,0.7778055130804635,-0.049488439949199374,0.0,0.0,-0.12340571005042107,0.992356302306259
61,-0.07382593952771455,-0.003563407988754763,0.00185370087203085,-0.04823026385945686,2.6719038042305545,-3.6392647275852346,0.7759518122084326,-0.04823026385945686,0.0,0.0,-0.12028370729248211,0.9927395578700269
62,-0.07578739654230837,-0.003563407988754763,0.0018537008720309611,-0.04698387475096515,2.745729743758269,-3.697080536013009,0.7740981113364017,-0.04698387475096515,0.0,0.0,-0.11718977893293317,0.9931095386278647
63,-0.07783043487338803,-0.003563407988754763,0.00185370087203085,-0.04575229796067972,2.8215171403005774,-3.7505636875679578,0.7722444104643708,-0.04575229796067972,0.0,0.0,-0.11413150164681869,0.9934656513095167
64,-0.0799550545209633,-0.003563407988754763,0.0018537008720309611,-0.04453816604574458,2.8993475751739655,-3.799533977509956,0.7703907095923399,-0.04453816604574458,0.0,0.0,-0.11111548463379982,0.9938075010154611
65,-0.08216125548503062,-0.003563407988754763,0.00185370087203085,-0.043343741367995195,2.9793026296949288,-3.8438112010988696,0.768537008720309,-0.043343741367995195,0.0,0.0,-0.10814742314970197,0.9941348675436745
66,-0.08444903776558643,-0.003563407988754763,0.00185370087203085,-0.04217094070236176,3.0614638851799594,-3.8832151535945716,0.7666833078482781,-0.04217094070236176,0.0,0.0,-0.10523215738842924,0.9944476824103804
67,-0.08681840136263475,-0.003563407988754763,0.0018537008720309611,-0.04102136103881496,3.145912922945546,-3.91756563025693,0.7648296069762472,-0.04102136103881496,0.0,0.0,-0.10237373465572083,0.9947460070051249
68,-0.08926934627617511,-0.003563407988754763,0.00185370087203085,-0.0398963058775122,3.2327313243081806,-3.9466824263458173,0.7629759061042163,-0.0398963058775122,0.0,0.0,-0.09957547308569195,0.9950300121904668
69,-0.09180187250620708,-0.003563407988754763,0.0018537008720309611,-0.03879681144118039,3.3220006705843557,-3.9703853371210975,0.7611222052321854,-0.03879681144118039,0.0,0.0,-0.09684002545038926,0.9952999595452459
70,-0.0944159145439869,-0.003563407988754763,0.00185370087203085,-0.03772369849311763,3.4138025430905627,-3.988494157842643,0.7592685043601545,-0.03772369849311763,0.0,0.0,-0.09416950697474066,0.9955561782019808
71,-0.09697955150111026,-0.003563407988754763,0.0018537008720309611,-0.036727388003824364,3.5082184576345496,-4.000828828472415,0.7574148034881236,-0.036727388003824364,0.0,0.0,-0.09168950976911736,0.995787644931538
72,-0.09908428264224067,-0.003563407988754763,0.00185370087203085,-0.035947910413647886,3.60519800913566,-4.007500688651032,0.7555611026160927,-0.035947910413647886,0.0,0.0,-0.08974885152156263,0.995964428908262
73,-0.10065127817828712,-0.003563407988754763,0.00185370087203085,-0.035388724021632116,3.7042822917779006,-4.009523414142411,0.7537074017440618,-0.035388724021632116,0.0,0.0,-0.08835643988765024,0.9960889214976643
74,-0.10168053810924693,-0.003563407988754763,0.0018537008720309611,-0.035030796607863644,3.8049335699561877,-4.00808480760947,0.751853700872031,-0.035030796607863644,0.0,0.0,-0.08746508580420144,0.9961675856828828
