frame_id,dx,dy,dz,angle,x,y,z,qx,qy,qz,qw
1,-0.10167495646966057,0.004298997298078144,0.014930449047033223,0.04225660231509455,-0.3333650549413483,0.838023565928332,1.57117469758683,0.04225660231509455,0.0,0.0,0.10544511995435962,0.994425123716115
2,-0.10055831882322022,0.004298997298078144,0.014930449047033445,0.04272526792288619,-0.23169009847168776,0.8337245686302539,1.5562442485397967,0.04272526792288619,0.0,0.0,0.10661017944796083,0.9943008949196785
3,-0.09888336235355963,0.004298997298078144,0.014930449047033223,0.043448075918294526,-0.13113177964846753,0.8322915695308946,1.5413137994927633,0.043448075918294526,0.0,0.0,0.10840672600367857,0.9941066249438052
4,-0.0966500870606789,0.004298997298078144,0.014930449047033223,0.04445071537293763,-0.03224841729490791,0.8351575677296134,1.52638335044573,0.04445071537293763,0.0,0.0,0.11089820914349151,0.9938317700741743
5,-0.09397149179362227,0.004298997298078144,0.014930449047033223,0.04571601340669401,0.064401669765771,0.8437555623257695,1.5114529013986968,0.04571601340669401,0.0,0.0,0.11404138253222887,0.9934760002486914
6,-0.09129957194856578,0.004298997298078144,0.014930449047033223,0.04705196573537236,0.15837316155939327,0.8592285259281686,1.4965224523516636,0.04705196573537236,0.0,0.0,0.11735883174946324,0.9930895753205756
7,-0.08874732637455396,0.004298997298078144,0.014930449047033445,0.04840302961712339,0.24967273350795904,0.8815593251833992,1.4815920033046304,0.04840302961712339,0.0,0.0,0.12071247456438777,0.9926875130092763
8,-0.08631475507158642,0.004298997298078144,0.014930449047033223,0.04976493088458308,0.338420059882513,0.9104408002474956,1.466661554257597,0.04976493088458308,0.0,0.0,0.12409162432011521,0.9922707638409969
9,-0.08400185803966359,0.004298997298078144,0.014930449047033223,0.0511327972824574,0.4247348149540994,0.945565791276493,1.4517311052105637,0.0511327972824574,0.0,0.0,0.12748412672507994,0.9918406109013402
10,-0.08180863527878524,0.004298997298078144,0.014930449047033223,0.05250114101009507,0.508736672993763,0.9866271384264257,1.4368006561635305,0.05250114101009507,0.0,0.0,0.13087632137775723,0.9913987030971071
11,-0.07973508678895136,0.004298997298078144,0.014930449047033223,0.05386385198178604,0.5905453082725483,1.0333176818533283,1.4218702071164973,0.05386385198178604,0.0,0.0,0.13425303008637524,0.9909470843151146
12,-0.07778121257016168,0.004298997298078144,0.014930449047033445,0.05521420424037716,0.6702803950614996,1.0853302617132357,1.406939758069464,0.05521420424037716,0.0,0.0,0.13759757780449758,0.990488216276365
13,-0.07594701262241699,0.004298997298078144,0.014930449047033223,0.05654487795599355,0.7480616076316613,1.1423577181621818,1.3920093090224306,0.05654487795599355,0.0,0.0,0.1408918519307719,0.9900249926438814
14,-0.07423248694571616,0.004298997298078144,0.014930449047033223,0.05784799929635143,0.8240086202540783,1.204092891356202,1.3770788599753974,0.05784799929635143,0.0,0.0,0.14411640530223346,0.9895607418055561
15,-0.07263763554006075,0.004298997298078144,0.014930449047033223,0.05911520013782009,0.8982411071997944,1.2702286214513305,1.3621484109283641,0.05911520013782009,0.0,0.0,0.14725060737755075,0.9890992157650023
16,-0.07116245840544921,0.004298997298078144,0.014930449047033223,0.0603376990727302,0.9708787427398552,1.3404577486036022,1.347217961881331,0.0603376990727302,0.0,0.0,0.15027284680851755,0.9886445627787894
17,-0.06980695554188165,0.004298997298078144,0.014930449047033445,0.061506404444958244,1.0420412011453044,1.4144731129690515,1.3322875128342977,0.061506404444958244,0.0,0.0,0.15316078681128084,0.9882012818162853
18,-0.06857112694935963,0.004298997298078144,0.014930449047033223,0.0626120392153654,1.111848156687186,1.491967554703713,1.3173570637872642,0.0626120392153654,0.0,0.0,0.15589167248911495,0.9877741576132403
19,-0.06745497262788147,0.004298997298078144,0.014930449047033223,0.06364528634465963,1.1804192836365457,1.5726339139636216,1.302426614740231,0.06364528634465963,0.0,0.0,0.1584426865903343,0.987368176044801
20,-0.06645849257744807,0.004298997298078144,0.014930449047033445,0.06459695213142047,1.2478742562644272,1.656165030904811,1.2874961656931978,0.06459695213142047,0.0,0.0,0.16079134722822333,0.9869884207307261
21,-0.0655816867980592,0.004298997298078144,0.014930449047033223,0.06545814363031098,1.3143327488418752,1.7422537456833174,1.2725657166461644,0.06545814363031098,0.0,0.0,0.16291593802083965,0.9866399531433896
22,-0.06482455528971443,0.004298997298078144,0.014930449047033223,0.06622045499557477,1.3799144356399344,1.8305928984551738,1.2576352675991311,0.06622045499557477,0.0,0.0,0.16479595815233516,0.9863276799201439
23,-0.06418709805241463,0.004298997298078144,0.014930449047033223,0.0668761564603541,1.4447389909296489,1.9208753293764163,1.242704818552098,0.0668761564603541,0.0,0.0,0.16641257727351733,0.9860562124570716
24,-0.06366931508615847,0.004298997298078144,0.014930449047033223,0.06741837879208759,1.5089260889820635,2.012793878603078,1.2277743695050647,0.06741837879208759,0.0,0.0,0.16774907821684504,0.9858297250323703
25,-0.06327120639094841,0.004298997298078144,0.014930449047033445,0.06784128557031698,1.572595404068222,2.106041386291195,1.2128439204580315,0.06784128557031698,0.0,0.0,0.16879126944883102,0.9856518185230787
26,-0.06299277196678132,0.004298997298078144,0.014930449047033223,0.06814022560577605,1.6358666104591704,2.2003106925968003,1.197913471410998,0.06814022560577605,0.0,0.0,0.1695278492165348,0.9855253971055317
27,-0.06283401181365922,0.004298997298078144,0.014930449047033223,0.068311858311906,1.6988593824259517,2.29529463767593,1.1829830223639648,0.068311858311906,0.0,0.0,0.1699507045747371,0.9854525650758389
28,-0.06279492593158187,0.004298997298078144,0.014930449047033223,0.06835424585753029,1.761693394239611,2.390686061684618,1.1680525733169316,0.06835424585753029,0.0,0.0,0.17005513090922625,0.9854345500597419
29,-0.06287551432054839,0.004298997298078144,0.014930449047033223,0.0682669074234309,1.8244883201711928,2.486177804778899,1.1531221242698984,0.0682669074234309,0.0,0.0,0.16983996108097152,0.9854716574412549
30,-0.06307577698055988,0.004298997298078144,0.014930449047033445,0.06805083275507748,1.8873638344917412,2.5814627071148077,1.1381916752228651,0.06805083275507748,0.0,0.0,0.16930759767318884,0.9855632589388332
31,-0.06339571391161591,0.004298997298078144,0.014930449047033223,0.0677084543040514,1.950439611472301,2.676233608848379,1.1232612261758317,0.0677084543040514,0.0,0.0,0.16846394670016313,0.9857078160703631
32,-0.06383532511371648,0.004298997298078144,0.014930449047033223,0.06724357940975739,2.013835325383917,2.770183350135647,1.1083307771287985,0.06724357940975739,0.0,0.0,0.16731825614568732,0.9859029369873924
33,-0.06439461058686113,0.004298997298078144,0.014930449047033223,0.06666128601176809,2.0776706504976334,2.8630047711326467,1.0934003280817652,0.06666128601176809,0.0,0.0,0.16588286743738223,0.986145463048303
34,-0.06507357033105032,0.004298997298078144,0.014930449047033223,0.06596778713686362,2.1420652610844946,2.9543907119954116,1.078469879034732,0.06596778713686362,0.0,0.0,0.1641728920592535,0.9864315797423057
35,-0.06587220434628449,0.004298997298078144,0.014930449047033445,0.06517027074254908,2.207138831415545,3.044034012879978,1.0635394299876988,0.06517027074254908,0.0,0.0,0.16220582866036165,0.9867569453257501
36,-0.06679051263256275,0.004298997298078144,0.014930449047033223,0.06427672233692257,2.2730110357618294,3.1316275139423793,1.0486089809406653,0.06427672233692257,0.0,0.0,0.16000113803761903,0.9871168298771259
37,-0.06782849518988598,0.004298997298078144,0.014930449047033223,0.06329573810358488,2.339801548394392,3.216864055338651,1.0336785318936321,0.06329573810358488,0.0,0.0,0.15757979417971565,0.9875062574314547
38,-0.06898615201825287,0.004298997298078144,0.014930449047033223,0.06223633606285576,2.407630043584278,3.299436477224827,1.018748082846599,0.06223633606285576,0.0,0.0,0.15496382919884238,0.9879201443639217
39,-0.07026348311766428,0.004298997298078144,0.014930449047033334,0.06110777216446165,2.476616195602531,3.379037619756943,1.0038176337995657,0.06110777216446165,0.0,0.0,0.15217588859031717,0.9883534281479208
40,-0.07166048848812157,0.004298997298078144,0.014930449047033223,0.05991936723159678,2.5468796787201953,3.455360323091031,0.9888871847525323,0.05991936723159678,0.0,0.0,0.14923881106539208,0.9888011818721639
41,-0.07317716812962205,0.004298997298078144,0.014930449047033334,0.05868034947786733,2.618540167208317,3.528097427383129,0.9739567357054991,0.05868034947786733,0.0,0.0,0.146175244458876,0.9892587113123583
42,-0.07481352204216662,0.004298997298078144,0.014930449047033223,0.05739971601526634,2.691717335337939,3.596941772789269,0.9590262866584658,0.05739971601526634,0.0,0.0,0.14300730618981222,0.989721632771727
43,-0.07656955022575795,0.004298997298078144,0.014930449047033334,0.056086115470660426,2.7665308573801055,3.6615861994654875,0.9440958376114326,0.056086115470660426,0.0,0.0,0.13975629370015616,0.9901859312125151
44,-0.07844525268039071,0.004298997298078144,0.014930449047033223,0.054747752618546607,2.8431004076058635,3.721723547567818,0.9291653885643992,0.054747752618546607,0.0,0.0,0.1364424474225609,0.9906479993122389
45,-0.08044062940607022,0.004298997298078144,0.014930449047033223,0.053392314883335394,2.921545660286254,3.7770466572522956,0.914234939517366,0.053392314883335394,0.0,0.0,0.13308476629108892,0.9911046589443752
46,-0.08255568040279426,0.004298997298078144,0.014930449047033334,0.052026919704293954,3.0019862896923244,3.827248368674955,0.8993044904703328,0.052026919704293954,0.0,0.0,0.1297008737084955,0.991553167187344
47,-0.08479040567056195,0.004298997298078144,0.014930449047033223,0.05065808110611109,3.0845419700951187,3.8720215219918295,0.8843740414232995,0.05065808110611109,0.0,0.0,0.12630693026664774,0.9919912093192238
48,-0.08714480520937284,0.004298997298078144,0.014930449047033334,0.04929169337471816,3.1693323757656806,3.9110589573589554,0.8694435923762662,0.04929169337471816,0.0,0.0,0.12291758838431227,0.9924168813889578
49,-0.0896188790192296,0.004298997298078144,0.014930449047033223,0.04793302948346658,3.2564771809750535,3.9440535149323654,0.8545131433292329,0.04793302948346658,0.0,0.0,0.11954598334393088,0.9928286649096775
50,-0.09221262710013223,0.004298997298078144,0.014930449047033334,0.04658675182217952,3.346096059994283,3.9706980348680965,0.8395826942821997,0.04658675182217952,0.0,0.0,0.11620375491843563,0.9932253960420344
51,-0.09492133648247414,0.004298997298078144,0.014930449047033223,0.04525917681843782,3.4383086870944153,3.9906853573221834,0.8246522452351663,0.04525917681843782,0.0,0.0,0.11290666793648663,0.9936055979791377
52,-0.09748781457148947,0.004298997298078144,0.014930449047033223,0.04406924016079691,3.5332300235768894,4.0037204189104445,0.8097217961881331,0.04406924016079691,0.0,0.0,0.10995035339174983,0.9939370803974612
53,-0.09952746737053708,0.004298997298078144,0.014930449047033334,0.043167246322033045,3.630717838148379,4.010168275057794,0.7947913471410999,0.043167246322033045,0.0,0.0,0.10770876293844128,0.9941824894788032
54,-0.10100880134636636,0.004298997298078144,0.014930449047033223,0.04253495056395688,3.730245305518916,4.011381092545358,0.7798608980940666,0.04253495056395688,0.0,0.0,0.10613708559788307,0.9943515067926371
55,-0.10193181649897509,0.004298997298078144,0.014930449047033334,0.04215024529116632,3.8312541068652823,4.008791870472497,0.7649304490470333,0.04215024529116632,0.0,0.0,0.10518070598835592,0.9944531256362922
