frame_id,dx,dy,dz,angle,x,y,z,qx,qy,qz,qw
1,-0.10008608940810415,0.0009994737713291402,-0.004212282424076119,0.009985808774403738,-0.9831631069968915,-0.8835717184497364,0.4972630545554343,0.009985808774403738,0.0,0.0,0.024961928921314658,0.9996884025057644
2,-0.10002869646936807,0.0009994737713291402,-0.004212282424076008,0.009991537898146411,-0.8830770175887873,-0.8845711922210655,0.5014753369795104,0.009991537898146411,0.0,0.0,0.024976247265158968,0.9996880448782758
3,-0.0999426070612639,0.0009994737713291402,-0.004212282424076119,0.010000143920030279,-0.7830483211194192,-0.8849043501448418,0.5056876194035864,0.010000143920030279,0.0,0.0,0.024997755602354742,0.999687507281573
4,-0.09982782118379174,0.0009994737713291402,-0.004212282424076119,0.010011641703147025,-0.6831057140581553,-0.8842380342972892,0.5098999018276625,0.010011641703147025,0.0,0.0,0.025026491067381775,0.9996867883216494
5,-0.09969004860166164,0.0009994737713291402,-0.004212282424076119,0.010025476959417006,-0.5832778928743636,-0.882239086754631,0.5141121842517387,0.010025476959417006,0.0,0.0,0.025061068359670154,0.9996859221038735
6,-0.09955212837371341,0.0009994737713291402,-0.004212282424076119,0.010039365394029144,-0.48358784427270196,-0.8786406383525772,0.5183244666758148,0.010039365394029144,0.0,0.0,0.02509577852596148,0.9996850513537631
7,-0.09941977026465731,0.0009994737713291402,-0.004212282424076008,0.010052729958789931,-0.38403571589898855,-0.8734409749647823,0.5225367490998909,0.010052729958789931,0.0,0.0,0.025129179400970796,0.9996842123103844
8,-0.09929297427449324,0.0009994737713291402,-0.004212282424076119,0.010065566313230585,-0.28461594563433124,-0.8667046712243872,0.5267490315239669,0.010065566313230585,0.0,0.0,0.025161260140220815,0.9996834053780007
9,-0.09917174040322127,0.0009994737713291402,-0.004212282424076119,0.010077870271933168,-0.185322971359838,-0.8584963017645322,0.530961313948043,0.010077870271933168,0.0,0.0,0.025192010286651106,0.9996826309473008
10,-0.09905606865084146,0.0009994737713291402,-0.004212282424076119,0.010089637807872679,-0.08615123095661673,-0.8488804412183583,0.5351735963721191,0.010089637807872679,0.0,0.0,0.025221419778964867,0.9996818893949881
11,-0.09894595901735359,0.0009994737713291402,-0.004212282424076119,0.010100865055650754,0.01290483769422473,-0.837921664219006,0.5393858787961953,0.010100865055650754,0.0,0.0,0.02524947895970495,0.9996811810833809
12,-0.09884141150275755,0.0009994737713291402,-0.004212282424076008,0.010111548314616125,0.11185079671157833,-0.8256845453996163,0.5435981612202714,0.010111548314616125,0.0,0.0,0.025276178583047034,0.9996805063600259
13,-0.09874242610705403,0.0009994737713291402,-0.004212282424076119,0.010121684051867275,0.21069220821433587,-0.8122336593933297,0.5478104436443474,0.010121684051867275,0.0,0.0,0.025301509822298535,0.9996798655573254
14,-0.09864900283024214,0.0009994737713291402,-0.004212282424076119,0.010131268905133148,0.3094346343213899,-0.7976335808332868,0.5520227260684235,0.010131268905133148,0.0,0.0,0.02532546427709292,0.9996792589921778
15,-0.09856114167232272,0.0009994737713291402,-0.004212282424076119,0.010140299685526691,0.40808363715163204,-0.7819488843526287,0.5562350084924996,0.010140299685526691,0.0,0.0,0.02534803398026642,0.9996786869656346
16,-0.09847884263329498,0.0009994737713291402,-0.004212282424076008,0.010148773380168365,0.5066447788239548,-0.7652441445844956,0.5604472909165757,0.010148773380168365,0.0,0.0,0.025369211404409935,0.9996781497625715
17,-0.09840210571315933,0.0009994737713291402,-0.004212282424076119,0.010156687154674283,0.6051236214572497,-0.7475839361620286,0.5646595733406518,0.010156687154674283,0.0,0.0,0.025388989468082872,0.9996776476513765
18,-0.09833093091191614,0.0009994737713291402,-0.004212282424076119,0.01016403835550627,0.7035257271704091,-0.7290328337183681,0.5688718557647279,0.01016403835550627,0.0,0.0,0.025407361541682095,0.9996771808836542
19,-0.09826531822956441,0.0009994737713291402,-0.004212282424076119,0.010170824512179807,0.8018566580823252,-0.709655411886655,0.573084138188804,0.010170824512179807,0.0,0.0,0.02542432145295594,0.9996767496939482
20,-0.09820526766610527,0.0009994737713291402,-0.004212282424076119,0.010177043339325962,0.9001219763118896,-0.68951624530003,0.5772964206128801,0.010177043339325962,0.0,0.0,0.02543986349215358,0.9996763542994805
21,-0.09815077922153792,0.0009994737713291402,-0.004212282424076008,0.010182692738605371,0.9983272439779949,-0.6686799085916337,0.5815087030369562,0.010182692738605371,0.0,0.0,0.025453982416804882,0.9996759948999101
22,-0.09810185289586282,0.0009994737713291402,-0.004212282424076119,0.010187770800469818,1.0964780231995328,-0.6472109763946069,0.5857209854610322,0.010187770800469818,0.0,0.0,0.025466673456119627,0.9996756716771091
23,-0.09805848868907963,0.0009994737713291402,-0.004212282424076119,0.010192275805769875,1.1945798760953956,-0.6251740233420903,0.5899332678851084,0.010192275805769875,0.0,0.0,0.025477932315002352,0.9996753847949604
24,-0.0980206866011879,0.0009994737713291402,-0.004212282424076119,0.010196206227205351,1.2926383647844752,-0.6026336240672245,0.5941455503091845,0.010196206227205351,0.0,0.0,0.02548775517767452,0.9996751343991722
25,-0.0979884466321892,0.0009994737713291402,-0.004212282424076008,0.010199560730616333,1.3906590513856631,-0.5796543532031504,0.5983578327332606,0.010199560730616333,0.0,0.0,0.025496138710898692,0.9996749206171147
26,-0.0979617687820824,0.0009994737713291402,-0.004212282424076119,0.01020233817611369,1.4886474980178523,-0.5563007853830085,0.6025701151573366,0.01020233817611369,0.0,0.0,0.025503080066801725,0.9996747435576765
27,-0.0979406530508673,0.0009994737713291402,-0.004212282424076119,0.010204537619045656,1.5866092667999347,-0.5326374952399395,0.6067823975814127,0.010204537619045656,0.0,0.0,0.025508576885288615,0.9996746033111411
28,-0.09792509943854455,0.0009994737713291402,-0.004212282424076119,0.01020615831080024,1.684549919850802,-0.5087290574070844,0.6109946800054888,0.01020615831080024,0.0,0.0,0.025512627296046357,0.999674499949085
29,-0.09791510794511349,0.0009994737713291402,-0.004212282424076119,0.010207199699441987,1.7824750192893466,-0.4846400465175834,0.615206962429565,0.010207199699441987,0.0,0.0,0.025515229920134122,0.9996744335242963
30,-0.09791067857057434,0.0009994737713291402,-0.004212282424076008,0.010207661430181455,1.88039012723446,-0.46043503720457774,0.6194192448536411,0.010207661430181455,0.0,0.0,0.025516383871155665,0.9996744040707153
31,-0.09791181131492777,0.0009994737713291402,-0.004212282424076119,0.010207543345677347,1.9783008058050344,-0.4361786041012078,0.6236315272777171,0.010207543345677347,0.0,0.0,0.02551608875601387,0.9996744116033957
32,-0.09791850617817355,0.0009994737713291402,-0.004212282424076119,0.010206845486170672,2.076212617119962,-0.4119353218406142,0.6278438097017932,0.010206845486170672,0.0,0.0,0.025514344675245746,0.9996744561184869
33,-0.0979307631603108,0.0009994737713291402,-0.004212282424076119,0.010205568089450435,2.1741311232981357,-0.38776976505593796,0.6320560921258693,0.010205568089450435,0.0,0.0,0.02551115222293677,0.99967453759324
34,-0.09794858226133973,0.0009994737713291402,-0.004212282424076119,0.010203711590650942,2.2720618864584465,-0.3637465083803195,0.6362683745499454,0.010203711590650942,0.0,0.0,0.025506512486214702,0.9996746559860316
35,-0.09797196348126125,0.0009994737713291402,-0.004212282424076008,0.010201276621881417,2.3700104687197863,-0.33993012644689985,0.6404806569740216,0.010201276621881417,0.0,0.0,0.025500427044324616,0.9996748112364126
36,-0.09800090682007534,0.0009994737713291402,-0.004212282424076119,0.010198264011688397,2.4679824322010475,-0.3163851938888193,0.6446929393980976,0.010198264011688397,0.0,0.0,0.02549289796728636,0.9996750032651759
37,-0.09803541227778023,0.0009994737713291402,-0.004212282424076119,0.010194674784351597,2.565983339021123,-0.29317628533921897,0.6489052218221737,0.010194674784351597,0.0,0.0,0.0254839278141361,0.9996752319744467
38,-0.09807547985437903,0.0009994737713291402,-0.004212282424076119,0.01019051015901362,2.664018751298903,-0.27036797543123925,0.6531175042462498,0.01019051015901362,0.0,0.0,0.025473519630752978,0.9996754972477927
39,-0.09812110954986686,0.0009994737713291402,-0.004212282424076119,0.010185771548647722,2.762094231153282,-0.2480248387980209,0.6573297866703259,0.010185771548647722,0.0,0.0,0.025461676947281294,0.9996757989503559
40,-0.09817230136425081,0.0009994737713291402,-0.004212282424076008,0.01018046055885982,2.860215340703149,-0.2262114500727047,0.661542069094402,0.01018046055885982,0.0,0.0,0.025448403775138753,0.9996761369290044
41,-0.09822905529752335,0.0009994737713291402,-0.004212282424076119,0.010174578986534864,2.9583876420674,-0.20499238388843133,0.6657543515184781,0.010174578986534864,0.0,0.0,0.025433704603636035,0.999676511012505
42,-0.09829137134968935,0.0009994737713291402,-0.004212282424076119,0.010168128818319312,3.056616697364923,-0.1844322148783415,0.6699666339425542,0.010168128818319312,0.0,0.0,0.025417584396187066,0.999676921011715
43,-0.09835924952074704,0.0009994737713291402,-0.004212282424076119,0.010161112228952444,3.1549080687146125,-0.164595517675576,0.6741789163666303,0.010161112228952444,0.0,0.0,0.025400048586141737,0.9996773667197941
44,-0.09843268981069775,0.0009994737713291402,-0.004212282424076119,0.010153531579441327,3.2532673182353595,-0.14554686691327545,0.6783911987907064,0.010153531579441327,0.0,0.0,0.025381103072228236,0.9996778479124347
45,-0.09851169221954015,0.0009994737713291402,-0.004212282424076008,0.010145389415086898,3.3517000080460573,-0.1273508372245804,0.6826034812147825,0.010145389415086898,0.0,0.0,0.02536075421362344,0.9996783643481119
46,-0.09859625674727246,0.0009994737713291402,-0.004212282424076119,0.010136688463361774,3.4502117002655974,-0.11007200324263144,0.6868157636388585,0.010136688463361774,0.0,0.0,0.02533900882465312,0.9996789157683502
47,-0.09868638339390001,0.0009994737713291402,-0.004212282424076119,0.010127431631643362,3.54880795701287,-0.09377493960057015,0.6910280460629347,0.010127431631643362,0.0,0.0,0.02531587416913068,0.9996795018980097
48,-0.09878207215941792,0.0009994737713291402,-0.004212282424076119,0.010117622004808851,3.64749434040677,-0.07852422093153621,0.6952403284870108,0.010117622004808851,0.0,0.0,0.025291357954350953,0.9996801224455876
49,-0.09888332304382796,0.0009994737713291402,-0.004212282424076119,0.010107262842689695,3.746276412566188,-0.06438442186867088,0.6994526109110869,0.010107262842689695,0.0,0.0,0.02526546832473309,0.9996807771035371
50,-0.09899013604713014,0.0009994737713291402,-0.004212282424076008,0.010096357577395586,3.845159735610016,-0.05142011704511462,0.703664893335163,0.010096357577395586,0.0,0.0,0.025238213855137474,0.9996814655486028
51,-0.09910251116932489,0.0009994737713291402,-0.004212282424076119,0.010084909810508276,3.944149871657146,-0.039695881094008456,0.707877175759239,0.010084909810508276,0.0,0.0,0.02520960354385752,0.9996821874421699
52,-0.09922044841041178,0.0009994737713291402,-0.004212282424076119,0.010072923310150913,4.043252382826471,-0.0292762886484923,0.7120894581833151,0.010072923310150913,0.0,0.0,0.025179646805300628,0.999682942430629
53,-0.09934394777039035,0.0009994737713291402,-0.004212282424076008,0.01006040200793671,4.142472831236883,-0.020225914341708284,0.7163017406073913,0.01006040200793671,0.0,0.0,0.025148353462367656,0.9996837301457555
54,-0.09947300924925973,0.0009994737713291402,-0.00421228242407623,0.01004734999580183,4.241816779007273,-0.012609332806795326,0.7205140230314673,0.01004734999580183,0.0,0.0,0.025115733738543217,0.9996845502051007
55,-0.09960763284702256,0.0009994737713291402,-0.004212282424076008,0.010033771522726581,4.341289788256533,-0.0064911186768954465,0.7247263054555435,0.010033771522726581,0.0,0.0,0.025081798249707007,0.9996854022123965
56,-0.09974743274511955,0.0009994737713291402,-0.004212282424076119,0.010019709744391652,4.440897421103555,-0.0019358465851491147,0.7289385878796195,0.010019709744391652,0.0,0.0,0.025046654847889326,0.9996862833313913
57,-0.09987803802747841,0.0009994737713291402,-0.004212282424076119,0.01000660836961914,4.540644853848675,0.0009963880800499842,0.7331508703036956,0.01000660836961914,0.0,0.0,0.025013911672828147,0.9996871031591955
58,-0.0999811356385667,0.0009994737713291402,-0.004212282424076008,0.00999629053664818,4.640522891876153,0.0024123322167251536,0.7373631527277718,0.00999629053664818,0.0,0.0,0.024988125153125325,0.9996877480500257
59,-0.10005553678028622,0.0009994737713291402,-0.00421228242407623,0.009988857805152573,4.74050402751472,0.0026313421376992384,0.7415754351518478,0.009988857805152573,0.0,0.0,0.02496954912228563,0.9996882122024996
60,-0.10010124145263966,0.0009994737713291402,-0.004212282424076008,0.00998429735095741,4.840559564295006,0.00198657576674861,0.745787717575924,0.00998429735095741,0.0,0.0,0.02495815153991005,0.9996884968187395
