frame_id,dx,dy,dz,angle,x,y,z,qx,qy,qz,qw
1,-0.10118617381319472,0.0032944470604161225,0.0026288574514589103,0.03254677583904741,-1.4950107936232777,0.1925598499699382,0.9287623066992012,0.03254677583904741,0.0,0.0,0.08127718660691503,0.9966915365032778
2,-0.1003953912710649,0.0032944470604161225,0.0026288574514587992,0.03280295328843918,-1.393824619810083,0.18926540290952207,0.9261334492477423,0.03280295328843918,0.0,0.0,0.08191549463375634,0.996639278645442
3,-0.09920921745787026,0.0032944470604161225,0.0026288574514589103,0.03319486844343287,-1.293429228539018,0.18816725388938338,0.9235045917962835,0.03319486844343287,0.0,0.0,0.08289195025213608,0.9965585404698498
4,-0.09762765237361082,0.0032944470604161225,0.0026288574514587992,0.03373221974306111,-1.1942200110811478,0.19036355192966078,0.9208757343448246,0.03373221974306111,0.0,0.0,0.08423063012056702,0.9964462860332675
5,-0.0957276404519749,0.0032944470604161225,0.0026288574514587992,0.034401217294469766,-1.096592358707537,0.196952446050493,0.9182468768933658,0.034401217294469766,0.0,0.0,0.08589706185083924,0.9963040172384096
6,-0.09381695942771506,0.0032944470604161225,0.0026288574514589103,0.03510126464645262,-1.0008647182555621,0.20881838188339244,0.915618019441907,0.03510126464645262,0.0,0.0,0.0876405793856872,0.9961521614918782
7,-0.09197255373451951,0.0032944470604161225,0.0026288574514587992,0.035804585325799304,-0.907047758827847,0.22599099150536597,0.9129891619904481,0.035804585325799304,0.0,0.0,0.08939197904469258,0.9959965231277031
8,-0.09019442337238859,0.0032944470604161225,0.0026288574514587992,0.036509830763083805,-0.8150752050933275,0.24828620360479428,0.9103603045389893,0.036509830763083805,0.0,0.0,0.09114789420305143,0.9958373669341543
9,-0.08848256834132195,0.0032944470604161225,0.0026288574514589103,0.037215533519932516,-0.724880781720939,0.2755199468700579,0.9077314470875305,0.037215533519932516,0.0,0.0,0.0929046643761295,0.9956750088945483
10,-0.08683698864132006,0.0032944470604161225,0.0026288574514587992,0.03792010633050453,-0.636398213379617,0.30750814998953746,0.9051025896360716,0.03792010633050453,0.0,0.0,0.09465833319284686,0.9955098191163922
11,-0.08525768427238212,0.0032944470604161225,0.0026288574514587992,0.03862184242073832,-0.5495612247382969,0.34406674165161366,0.9024737321846128,0.03862184242073832,0.0,0.0,0.09640464955224196,0.9953422243352833
12,-0.0837446552345088,0.0032944470604161225,0.0026288574514589103,0.03931891728236888,-0.4643035404659148,0.38501165054466713,0.899844874733154,0.03931891728236888,0.0,0.0,0.09813907239410771,0.9951727098698115
13,-0.0822979015277,0.0032944470604161225,0.0026288574514587992,0.04000939207477644,-0.380558885231406,0.43015880535707823,0.8972160172816951,0.04000939207477644,0.0,0.0,0.09985677950311386,0.9950018208964577
14,-0.08091742315195546,0.0032944470604161225,0.0026288574514589103,0.04069121881795952,-0.298260983703706,0.47932413477722785,0.8945871598302363,0.04069121881795952,0.0,0.0,0.1015526807399907,0.9948301629094896
15,-0.07960322010727564,0.0032944470604161225,0.0026288574514587992,0.04136224752354865,-0.21734356055175055,0.5323235674934964,0.8919583023787774,0.04136224752354865,0.0,0.0,0.10322143605132268,0.9946584012310471
16,-0.0783552923936599,0.0032944470604161225,0.0026288574514587992,0.04202023538709983,-0.13774034044447492,0.5889730321942647,0.8893294449273186,0.04202023538709983,0.0,0.0,0.10485747854968792,0.9944872594418702
17,-0.07717364001110852,0.0032944470604161225,0.0026288574514589103,0.042662858133446536,-0.05938504805081501,0.6490884575679132,0.8867005874758598,0.042662858133446536,0.0,0.0,0.10645504287722155,0.99431751661429
18,-0.07605826295962195,0.0032944470604161225,0.0026288574514587992,0.04328772356745262,0.017788591960293514,0.7124857723028225,0.8840717300244009,0.04328772356745262,0.0,0.0,0.10800819896783222,0.9941500032468567
19,-0.07500916123919969,0.0032944470604161225,0.0026288574514589103,0.04389238733521076,0.09384685491991547,0.7789809050873733,0.8814428725729421,0.04389238733521076,0.0,0.0,0.1095108912066701,0.9939855958247689
20,-0.0740263348498417,0.0032944470604161225,0.0026288574514587992,0.04447437084613301,0.16885601615911516,0.8483897846099461,0.8788140151214832,0.04447437084613301,0.0,0.0,0.11095698285152472,0.993825209962238
21,-0.07310978379154823,0.0032944470604161225,0.0026288574514587992,0.04503118124549542,0.24288235100895686,0.9205283395589217,0.8761851576700244,0.04503118124549542,0.0,0.0,0.11234030543220246,0.9936697921218092
22,-0.07225950806431908,0.0032944470604161225,0.0026288574514589103,0.04556033326132613,0.3159921348005051,0.9952124986226806,0.8735563002185656,0.04556033326132613,0.0,0.0,0.11365471268432628,0.9935203099507545
23,-0.07147550766815475,0.0032944470604161225,0.0026288574514587992,0.046059372681083594,0.38825164286482416,1.0722581904896036,0.8709274427671067,0.046059372681083594,0.0,0.0,0.11489413840837254,0.9933777413247177
24,-0.07075778260305393,0.0032944470604161225,0.0026288574514587992,0.046525901144842056,0.4597271505329789,1.1514813438480707,0.8682985853156479,0.046525901144842056,0.0,0.0,0.1160526574791491,0.9932430622420815
25,-0.07010633286901857,0.0032944470604161225,0.0026288574514589103,0.046957601875535555,0.5304849331360328,1.232697887386463,0.865669727864189,0.046957601875535555,0.0,0.0,0.11712454907220214,0.9931172337668063
26,-0.06952115846604723,0.0032944470604161225,0.0026288574514587992,0.04735226590640837,0.6005912660050514,1.315723749793161,0.8630408704127301,0.04735226590640837,0.0,0.0,0.11810436102947904,0.9930011882700939
27,-0.06900225939413995,0.0032944470604161225,0.0026288574514587992,0.04770781831437628,0.6701124244710986,1.400374859756546,0.8604120129612713,0.04770781831437628,0.0,0.0,0.1189869741645733,0.9928958152692352
28,-0.06854963565329786,0.0032944470604161225,0.0026288574514589103,0.04802234392882796,0.7391146838652386,1.4864671459649974,0.8577831555098125,0.04802234392882796,0.0,0.0,0.1197676652158686,0.9928019472023308
29,-0.06816328724351939,0.0032944470604161225,0.0026288574514587992,0.048294111961324354,0.8076643195185365,1.5738165371068966,0.8551542980583536,0.048294111961324354,0.0,0.0,0.12044216710052437,0.9927203455072982
30,-0.06784321416480565,0.0032944470604161225,0.0026288574514589103,0.04852159899515171,0.8758276067620558,1.6622389618706235,0.8525254406068948,0.04852159899515171,0.0,0.0,0.12100672510925059,0.9926516873900605
31,-0.06758941641715677,0.0032944470604161225,0.0026288574514587992,0.04870350978648658,0.9436708209268615,1.7515503489445599,0.8498965831554359,0.04870350978648658,0.0,0.0,0.12145814771518973,0.9925965536680021
32,-0.06740189400057162,0.0032944470604161225,0.0026288574514587992,0.048838795361783496,1.0112602373440183,1.8415666270170854,0.8472677257039771,0.048838795361783496,0.0,0.0,0.12179385075157345,0.9925554180594167
33,-0.06728064691505153,0.0032944470604161225,0.0026288574514589103,0.048926667948764255,1.0786621313445899,1.9321037247765809,0.8446388682525183,0.048926667948764255,0.0,0.0,0.1220118938417039,0.9925286382574363
34,-0.0672256751605953,0.0032944470604161225,0.0026288574514587992,0.048966612349751665,1.1459427782596414,2.0229775709114275,0.8420100108010594,0.048966612349751665,0.0,0.0,0.12211100813796955,0.9925164490785675
35,-0.06723697873720336,0.0032944470604161225,0.0026288574514589103,0.048958393453655415,1.2131684534202367,2.1140040941100047,0.8393811533496006,0.048958393453655415,0.0,0.0,0.12209061463827202,0.9925189579132728
36,-0.06731455764487704,0.0032944470604161225,0.0026288574514587992,0.048902059683426265,1.28040543215744,2.204999223060694,0.8367522958981417,0.048902059683426265,0.0,0.0,0.1219508325906331,0.9925361426318194
37,-0.0674584118836139,0.0032944470604161225,0.0026288574514587992,0.04879794228503983,1.347719989802317,2.2957788864518758,0.8341234384466829,0.04879794228503983,0.0,0.0,0.12169247775986278,0.9925678520165084
38,-0.06766854145341528,0.0032944470604161225,0.0026288574514589103,0.04864665047740761,1.415178401685931,2.3861590129719312,0.8314945809952241,0.04864665047740761,0.0,0.0,0.12131705060297593,0.9926138087055786
39,-0.06794494635428161,0.0032944470604161225,0.0026288574514587992,0.048449062595142534,1.4828469431393463,2.475955531309239,0.8288657235437652,0.048449062595142534,0.0,0.0,0.12082671467094505,0.9926736145490249
40,-0.0682876265862129,0.0032944470604161225,0.0026288574514587992,0.04820631346284402,1.550791889493628,2.5649843701521817,0.8262368660923064,0.04820631346284402,0.0,0.0,0.12022426581154039,0.9927467581967095
41,-0.06869658214920715,0.0032944470604161225,0.0026288574514589103,0.04791977833609957,1.6190795160798408,2.65306145818914,0.8236080086408476,0.04791977833609957,0.0,0.0,0.11951309298096639,0.9928326246684901
42,-0.06917181304326658,0.0032944470604161225,0.0026288574514587992,0.04759105382676611,1.687776098229048,2.7400027241084928,0.8209791511893887,0.04759105382676611,0.0,0.0,0.11869713167132058,0.9929305065980203
43,-0.0697133192683903,0.0032944470604161225,0.0026288574514587992,0.047221936295341084,1.7569479112723145,2.825624096598622,0.8183502937379299,0.047221936295341084,0.0,0.0,0.11778081111950617,0.9930396167988622
44,-0.07032110082457854,0.0032944470604161225,0.0026288574514589103,0.04681439823926705,1.8266612305407048,2.9097415043479087,0.8157214362864711,0.04681439823926705,0.0,0.0,0.11676899657604994,0.9931591017750492
45,-0.07099515771183174,0.0032944470604161225,0.0026288574514587992,0.0463705632320331,1.8969823313652834,2.9921708760447325,0.8130925788350122,0.0463705632320331,0.0,0.0,0.11566692797729522,0.9932880557885991
46,-0.07173548993014878,0.0032944470604161225,0.0026288574514589103,0.04589267997398723,1.9679774890771151,3.0727281403774747,0.8104637213835534,0.04589267997398723,0.0,0.0,0.11448015638161174,0.9934255351030804
47,-0.07254209747953055,0.0032944470604161225,0.0026288574514587992,0.04538309600305526,2.039712979007264,3.1512292260345136,0.8078348639320945,0.04538309600305526,0.0,0.0,0.113214479502299,0.9935705720435885
48,-0.07341498035997551,0.0032944470604161225,0.0026288574514587992,0.04484423158404723,2.1122550764867944,3.2274900617042337,0.8052060064806357,0.04484423158404723,0.0,0.0,0.11187587760130975,0.9937221885471497
49,-0.07435413857148632,0.0032944470604161225,0.0026288574514589103,0.04427855425149659,2.18567005684677,3.301326576075013,0.8025771490291769,0.04427855425149659,0.0,0.0,0.11047045090479228,0.9938794089208669
50,-0.07535957211406075,0.0032944470604161225,0.0026288574514587992,0.043688554426149565,2.2600241954182563,3.3725546978352314,0.799948291577718,0.043688554426149565,0.0,0.0,0.10900435957111661,0.9940412715750241
51,-0.07643128098770013,0.0032944470604161225,0.0026288574514589103,0.0430767224624412,2.335383767532317,3.4409903556732724,0.7973194341262592,0.0430767224624412,0.0,0.0,0.10748376709193713,0.9942068395518743
52,-0.07756926519240492,0.0032944470604161225,0.0026288574514587992,0.04244552741695538,2.411815048520017,3.5064494782775153,0.7946905766748003,0.04244552741695538,0.0,0.0,0.10591478784506099,0.9943752097250492
53,-0.07877352472817156,0.0032944470604161225,0.0026288574514587992,0.041797397758898916,2.489384313712422,3.5687479943363396,0.7920617192233415,0.041797397758898916,0.0,0.0,0.10430343935146176,0.9945455205969488
54,-0.08004405959500449,0.0032944470604161225,0.0026288574514587992,0.04113470417586983,2.5681578384405936,3.627701832538127,0.7894328617718827,0.04113470417586983,0.0,0.0,0.10265559962458692,0.9947169586700111
55,-0.08138086979290104,0.0032944470604161225,0.0026288574514589103,0.04045974456398913,2.648201898035598,3.6831269215712577,0.7868040043204239,0.04045974456398913,0.0,0.0,0.10097696984382372,0.9948887634108446
56,-0.08278395532186256,0.0032944470604161225,0.0026288574514589103,0.03977473123252772,2.729582767828499,3.734839190124113,0.784175146868965,0.03977473123252772,0.0,0.0,0.09927304243988096,0.9950602308628004
57,-0.08425331618188903,0.0032944470604161225,0.0026288574514587992,0.03908178030101552,2.8123667231503617,3.782654566885072,0.781546289417506,0.03908178030101552,0.0,0.0,0.09754907455172222,0.9952307159920771
58,-0.08578895237297823,0.0032944470604161225,0.0026288574514587992,0.0383829032221312,2.8966200393322508,3.826388980542517,0.7789174319660472,0.0383829032221312,0.0,0.0,0.09581006670426884,0.9953996338748189
59,-0.08739086389513284,0.0032944470604161225,0.0026288574514587992,0.037680000326966126,2.982408991705229,3.865858359784827,0.7762885745145884,0.037680000326966126,0.0,0.0,0.09406074646480057,0.995566459848103
60,-0.08905905074835196,0.0032944470604161225,0.0026288574514589103,0.03697485626050403,3.069799855600362,3.900878633300385,0.7736597170631296,0.03697485626050403,0.0,0.0,0.09230555676386959,0.9957307287567819
61,-0.0907935129326356,0.0032944470604161225,0.0026288574514587992,0.03626913715401095,3.158858906348714,3.9312657297775697,0.7710308596116707,0.03626913715401095,0.0,0.0,0.09054864851288182,0.9958920334315817
62,-0.09259425044798464,0.0032944470604161225,0.0026288574514589103,0.03556438936701278,3.2496524192813494,3.956835577904762,0.7684020021602119,0.03556438936701278,0.0,0.0,0.08879387711424241,0.9960500225325136
63,-0.09446126329439553,0.0032944470604161225,0.0026288574514587992,0.03486203962384544,3.342246669729334,3.9774041063703436,0.765773144708753,0.03486203962384544,0.0,0.0,0.08704480243923056,0.9962043978864555
64,-0.09639149754155607,0.0032944470604161225,0.0026288574514587992,0.03416447790972935,3.4367079330237296,3.9927872438626926,0.7631442872572942,0.03416447790972935,0.0,0.0,0.08530738584091693,0.9963546807844027
65,-0.0982115722986685,0.0032944470604161225,0.0026288574514589103,0.033531814542191084,3.5330994305652856,4.002809400973636,0.7605154298058354,0.033531814542191084,0.0,0.0,0.08373138702464634,0.9964883616113782
66,-0.09965826561537794,0.0032944470604161225,0.0026288574514587992,0.03304540546972708,3.631311002863954,4.007776531690804,0.7578865723543765,0.03304540546972708,0.0,0.0,0.08251957296679291,0.9965894440928913
67,-0.10070956766102368,0.0032944470604161225,0.0026288574514589103,0.032700693326558075,3.730969268479332,4.008725655526061,0.7552577149029177,0.032700693326558075,0.0,0.0,0.08166070122305269,0.9966601877649971
68,-0.1013654784356035,0.0032944470604161225,0.0026288574514587992,0.03248924463583975,3.8316788361403558,4.006754921499545,0.7526288574514588,0.03248924463583975,0.0,0.0,0.08113383360843436,0.9967032161300569
