frame_id,dx,dy,dz,angle,x,y,z,qx,qy,qz,qw
1,-0.10132261318297209,0.0034386263736562034,0.00764529143766457,0.03392438306010254,-1.363412794456059,-0.03591193288724723,1.2775251091988526,0.03392438306010254,0.0,0.0,0.08470932144121504,0.9964057059556458
2,-0.10044087106099076,0.0034386263736562034,0.007645291437664348,0.03422196420954285,-1.262090181273087,-0.03935055926090343,1.269879817761188,0.03422196420954285,0.0,0.0,0.08545057681919578,0.9963424104800853
3,-0.09911825787801831,0.0034386263736562034,0.00764529143766457,0.034678251289691056,-1.1616493102120962,-0.04049676805212216,1.2622345263235237,0.034678251289691056,0.0,0.0,0.08658706640025983,0.9962442872770699
4,-0.09735477363405565,0.0034386263736562034,0.00764529143766457,0.03530589585029842,-1.0625310523340779,-0.03820435046968469,1.2545892348858592,0.03530589585029842,0.0,0.0,0.08815017743520985,0.996107196148156
5,-0.09523611116974773,0.0034386263736562034,0.00764529143766457,0.036090651167871295,-0.9651762787000222,-0.0313270977223723,1.2469439434481946,0.036090651167871295,0.0,0.0,0.09010425758396857,0.9959323384473675
6,-0.0931050418476791,0.0034386263736562034,0.00764529143766457,0.036915983515170954,-0.8699401675302745,-0.018941591526177578,1.23929865201053,0.036915983515170954,0.0,0.0,0.09215900226057806,0.9957443036755644
7,-0.0910472585084956,0.0034386263736562034,0.00764529143766457,0.03774954781429323,-0.7768351256825954,-0.0010155756259385466,1.2316533605728655,0.03774954781429323,0.0,0.0,0.09423384290655863,0.9955500905786017
8,-0.08906276115219725,0.0034386263736562034,0.007645291437664348,0.038589857891102614,-0.6857878671740998,0.02226041572629546,1.2240080691352009,0.038589857891102614,0.0,0.0,0.0963250603619503,0.9953499297966855
9,-0.08715154977878403,0.0034386263736562034,0.00764529143766457,0.039435255977440804,-0.5967251060219025,0.050695848278475106,1.2163627776975365,0.039435255977440804,0.0,0.0,0.098428510975239,0.9951441243494318
10,-0.08531362438825624,0.0034386263736562034,0.00764529143766457,0.040283907022397245,-0.5095735562431185,0.08410018777855104,1.208717486259872,0.040283907022397245,0.0,0.0,0.10053961311558669,0.9949330561372298
11,-0.08354898498061342,0.0034386263736562034,0.00764529143766457,0.0411337945389901,-0.42425993185486227,0.12228289997447395,1.2010721948222074,0.0411337945389901,0.0,0.0,0.10265333754624523,0.9947171921157373
12,-0.08185763155585551,0.0034386263736562034,0.00764529143766457,0.04198271831433157,-0.34071094687424885,0.1650534506141945,1.1934269033845428,0.04198271831433157,0.0,0.0,0.10476420246140658,0.9944970899317028
13,-0.08023956411398322,0.0034386263736562034,0.00764529143766457,0.042828294324887335,-0.25885331531839334,0.2122213054456632,1.1857816119468783,0.042828294324887335,0.0,0.0,0.10686627401813167,0.9942734027808858
14,-0.07869478265499566,0.0034386263736562034,0.007645291437664348,0.04366795720338122,-0.17861375120441011,0.2635959302168309,1.1781363205092137,0.04366795720338122,0.0,0.0,0.10895317320284592,0.994046883224846
15,-0.07722328717889365,0.0034386263736562034,0.00764529143766457,0.04449896559803469,-0.09991896854941446,0.3189867906756481,1.1704910290715493,0.04449896559803469,0.0,0.0,0.11101808985292386,0.993818385684934
16,-0.07582507768567659,0.0034386263736562034,0.00764529143766457,0.04531841074599364,-0.022695681370520807,0.37820335257006565,1.1628457376338848,0.04531841074599364,0.0,0.0,0.11305380460300166,0.993588867321281
17,-0.07450015417534453,0.0034386263736562034,0.00764529143766457,0.04612322854890452,0.053129396315155786,0.44105508164803414,1.1552004461962202,0.04612322854890452,0.0,0.0,0.11505271943803622,0.9933593870044781
18,-0.07324851664789803,0.0034386263736562034,0.00764529143766457,0.046910215387996515,0.12762955049050032,0.5073514436575041,1.1475551547585556,0.046910215387996515,0.0,0.0,0.11700689740704329,0.9931311021004113
19,-0.07207016510333625,0.0034386263736562034,0.007645291437664348,0.04767604784749484,0.20087806713839834,0.5769019043464262,1.139909863320891,0.04767604784749484,0.0,0.0,0.11890811188030126,0.9929052628166807
20,-0.07096509954165997,0.0034386263736562034,0.00764529143766457,0.04841730642831882,0.2729482322417346,0.6495159294627512,1.1322645718832267,0.04841730642831882,0.0,0.0,0.12074790551798942,0.9926832039039538
21,-0.06993331996286883,0.0034386263736562034,0.00764529143766457,0.04913050322935461,0.34391333178339456,0.7250029847544297,1.1246192804455621,0.04913050322935461,0.0,0.0,0.1225176588614644,0.9924663335686031
22,-0.06897482636696262,0.0034386263736562034,0.00764529143766457,0.049812113452776016,0.4138466517462634,0.8031725359694126,1.1169739890078976,0.049812113452776016,0.0,0.0,0.12420866816400788,0.9922561195341268
23,-0.06808961875394176,0.0034386263736562034,0.00764529143766457,0.05045861045593122,0.482821478113226,0.8838340488556502,1.109328697570233,0.05045861045593122,0.0,0.0,0.12581223175351064,0.9920540722869903
24,-0.06727769712380571,0.0034386263736562034,0.00764529143766457,0.05106650392950459,0.5509110968671678,0.9667969891610932,1.1016834061325684,0.05106650392950459,0.0,0.0,0.12731974387576536,0.9918617256550479
25,-0.0665390614765553,0.0034386263736562034,0.00764529143766457,0.05163238063564253,0.6181887939909735,1.0518708226336921,1.0940381146949039,0.05163238063564253,0.0,0.0,0.12872279461752664,0.9916806149894501
26,-0.06587371181218993,0.0034386263736562034,0.007645291437664348,0.05215294699731581,0.6847278554675288,1.1388650150213981,1.0863928232572393,0.05215294699731581,0.0,0.0,0.13001327416962397,0.9915122533482348
27,-0.06528164813070958,0.0034386263736562034,0.00764529143766457,0.05262507269899694,0.7506015672797187,1.2275890320721619,1.078747531819575,0.05262507269899694,0.0,0.0,0.1311834793802874,0.9913581062046558
28,-0.06476287043211437,0.0034386263736562034,0.00764529143766457,0.0530458343469208,0.8158832154104283,1.3178523395339337,1.0711022403819104,0.0530458343469208,0.0,0.0,0.1322262202866955,0.9912195653177425
29,-0.0643173787164042,0.0034386263736562034,0.00764529143766457,0.05341255815274072,0.8806460858425427,1.4094644031546641,1.0634569489442458,0.05341255815274072,0.0,0.0,0.13313492411718972,0.9910979224982314
30,-0.0639451729835796,0.0034386263736562034,0.00764529143766457,0.05372286055463215,0.9449634645589469,1.5022346886823037,1.0558116575065812,0.05372286055463215,0.0,0.0,0.13390373414460421,0.9909943440717163
31,-0.06364625323363993,0.0034386263736562034,0.007645291437664348,0.05397468568078993,1.0089086375425265,1.5959726618648038,1.0481663660689167,0.05397468568078993,0.0,0.0,0.1345276007563574,0.9909098468754552
32,-0.06342061946658539,0.0034386263736562034,0.00764529143766457,0.054166338595798114,1.0725548907761664,1.6904877884501144,1.0405210746312523,0.054166338595798114,0.0,0.0,0.13500236219825285,0.990845276620367
33,-0.06326827168241622,0.0034386263736562034,0.00764529143766457,0.054296513352089036,1.1359755102427518,1.7855895341861867,1.0328757831935877,0.054296513352089036,0.0,0.0,0.13532481264958215,0.990801289402348
34,-0.06318920988113175,0.0034386263736562034,0.00764529143766457,0.05436431499533402,1.199243781925168,1.8810873648209707,1.0252304917559232,0.05436431499533402,0.0,0.0,0.13549275559360266,0.9907783370571099
35,-0.06318343406273264,0.0034386263736562034,0.00764529143766457,0.05436927483994166,1.2624329918062998,1.976790746102417,1.0175852003182586,0.05436927483994166,0.0,0.0,0.13550504084966739,0.9907766569234108
36,-0.06325094422721889,0.0034386263736562034,0.00764529143766457,0.054311358531883645,1.3256164258690324,2.0725091437784777,1.009939908880594,0.054311358531883645,0.0,0.0,0.13536158411458224,0.9907962664170626
37,-0.06339174037459028,0.0034386263736562034,0.007645291437664459,0.0541909666413897,1.3888673700962513,2.168052023597102,1.0022946174429295,0.0541909666413897,0.0,0.0,0.1350633683989425,0.9908369626314572
38,-0.06360582250484703,0.0034386263736562034,0.007645291437664459,0.054008927766517514,1.4522591104708416,2.2632288513062404,0.994649326005265,0.054008927766517514,0.0,0.0,0.1346124273131402,0.9908983269805558
39,-0.06389319061798804,0.0034386263736562034,0.00764529143766457,0.05376648436803298,1.5158649329756886,2.3578490926538453,0.9870040345676006,0.05376648436803298,0.0,0.0,0.13401181072893337,0.9909797346995308
40,-0.06425384471401507,0.0034386263736562034,0.00764529143766457,0.05346527178420619,1.5797581235936766,2.451722213387865,0.979358743129936,0.05346527178420619,0.0,0.0,0.13326553388731358,0.9910803688287491
41,-0.0646877847929268,0.0034386263736562034,0.00764529143766457,0.05310729107969217,1.6440119683076917,2.544657679256253,0.9717134516922714,0.05310729107969217,0.0,0.0,0.1323785115153014,0.991199238139837
42,-0.0651950108547239,0.0034386263736562034,0.007645291437664459,0.052694876555812405,1.7086997531006185,2.6364649560069573,0.9640681602546068,0.052694876555812405,0.0,0.0,0.13135647893014962,0.9913351983275249
43,-0.06577552289940658,0.0034386263736562034,0.00764529143766457,0.052230658882989146,1.7738947639553424,2.726953509387929,0.9564228688169424,0.052230658882989146,0.0,0.0,0.13020590243195196,0.9914869756945277
44,-0.06642932092697329,0.0034386263736562034,0.007645291437664459,0.05171752490502644,1.839670286854749,2.8159328051471206,0.9487775773792778,0.05171752490502644,0.0,0.0,0.1289338815033028,0.9916531925025464
45,-0.06715640493742625,0.0034386263736562034,0.00764529143766457,0.05115857520772369,1.9060996077817223,2.90321230903248,0.9411322859416134,0.05115857520772369,0.0,0.0,0.12754804544316609,0.991832393150994
46,-0.06795677493076413,0.0034386263736562034,0.00764529143766457,0.050557080542047446,1.9732560127191485,2.9886014867919615,0.9334869945039488,0.050557080542047446,0.0,0.0,0.12605644706361777,0.9920230703737173
47,-0.06883043090698626,0.0034386263736562034,0.00764529143766457,0.049916438148346336,2.0412127876499127,3.071909804173511,0.9258417030662842,0.049916438148346336,0.0,0.0,0.124467455980561,0.9922236907077593
48,-0.06977737286609553,0.0034386263736562034,0.007645291437664459,0.049240128948684556,2.110043218556899,3.1529467269250833,0.9181964116286196,0.049240128948684556,0.0,0.0,0.12278965384615331,0.9924327185801272
49,-0.0707976008080875,0.0034386263736562034,0.00764529143766457,0.048531676466336784,2.1798205914229944,3.231521720794627,0.9105511201909552,0.048531676466336784,0.0,0.0,0.12103173361778638,0.9926486384705684
50,-0.07189111473296661,0.0034386263736562034,0.007645291437664459,0.04779460820277852,2.250618192231082,3.3074442515300935,0.9029058287532906,0.04779460820277852,0.0,0.0,0.11920240465455247,0.9928699747321259
51,-0.07305791464072842,0.0034386263736562034,0.00764529143766457,0.04703242006139747,2.3225093069640486,3.3805237848794345,0.8952605373156262,0.04703242006139747,0.0,0.0,0.11731030509670551,0.9930953087786277
52,-0.07429800053138003,0.0034386263736562034,0.00764529143766457,0.0462485442611324,2.395567221604777,3.4505697865905978,0.8876152458779616,0.0462485442611324,0.0,0.0,0.11536392263442502,0.9933232934721699
53,-0.07561137240491078,0.0034386263736562034,0.00764529143766457,0.04544632103963493,2.469865222136157,3.517391722411536,0.879969954440297,0.04544632103963493,0.0,0.0,0.11337152442678693,0.9935526646580676
54,-0.07699803026133178,0.0034386263736562034,0.007645291437664459,0.04462897430973546,2.545476594541068,3.5807990580902,0.8723246630026324,0.04462897430973546,0.0,0.0,0.11134109660327665,0.9937822498954083
55,-0.07845797410063504,0.0034386263736562034,0.00764529143766457,0.043799591310054786,2.6224746248023996,3.640601259374539,0.864679371564968,0.043799591310054786,0.0,0.0,0.10928029348094681,0.9940109745152305
56,-0.079991203922825,0.0034386263736562034,0.007645291437664459,0.0429611061830551,2.7009325989030346,3.6966077920125047,0.8570340801273034,0.0429611061830551,0.0,0.0,0.1071963963667753,0.9942378652042866
57,-0.08159771972789986,0.0034386263736562034,0.00764529143766457,0.04211628732425528,2.7809238028258596,3.7486281217520485,0.849388788689639,0.04211628732425528,0.0,0.0,0.10509628159359356,0.9944620513600305
58,-0.08327752151585877,0.0034386263736562034,0.00764529143766457,0.041267728274804405,2.8625215225537595,3.796471714341118,0.8417434972519744,0.041267728274804405,0.0,0.0,0.10298639725962874,0.9946827644930226
59,-0.08503060928670125,0.0034386263736562034,0.00764529143766457,0.04041784187629438,2.9457990440696182,3.8399480355276676,0.8340982058143098,0.04041784187629438,0.0,0.0,0.10087274800709466,0.9948993359679648
60,-0.08685698304043532,0.0034386263736562034,0.007645291437664459,0.03956885737025058,3.0308296533563195,3.8788665510596463,0.8264529143766453,0.03956885737025058,0.0,0.0,0.09876088708144797,0.995111193376341
61,-0.08875664277704676,0.0034386263736562034,0.007645291437664459,0.03872282010368173,3.117686636396755,3.9130367266850064,0.8188076229389808,0.03872282010368173,0.0,0.0,0.09665591485660444,0.9953178558245767
62,-0.09072958849655066,0.0034386263736562034,0.00764529143766457,0.03788159349423286,3.2064432791738016,3.9422680281516937,0.8111623315013163,0.03788159349423286,0.0,0.0,0.09456248298756602,0.9955189284042902
63,-0.09277582019893238,0.0034386263736562034,0.00764529143766457,0.03704686291201518,3.2971728676703522,3.966369921207664,0.8035170400636518,0.03704686291201518,0.0,0.0,0.09248480335623648,0.9957140960879073
64,-0.09489533788420479,0.0034386263736562034,0.00764529143766457,0.03622014114732082,3.3899486878692846,3.9851518716008636,0.7958717486259872,0.03622014114732082,0.0,0.0,0.0904266610020681,0.9959031172659402
65,-0.09703691886661447,0.0034386263736562034,0.007645291437664459,0.035421447521822934,3.4848440257534894,3.9984233450792486,0.7882264571883226,0.035421447521822934,0.0,0.0,0.08843792838192077,0.9960816898344805
66,-0.09886955942040432,0.0034386263736562034,0.00764529143766457,0.0347654114718553,3.581880944620104,4.006126979871128,0.7805811657506582,0.0347654114718553,0.0,0.0,0.08680414642683658,0.9962253962648755
67,-0.10026166450579588,0.0034386263736562034,0.00764529143766457,0.034283084283526936,3.680750504040508,4.009065981871783,0.7729358743129936,0.034283084283526936,0.0,0.0,0.08560281712566283,0.9963293419849434
68,-0.10121289853019633,0.0034386263736562034,0.007645291437664459,0.03396112879411041,3.781012168546304,4.008385687374297,0.765290582875329,0.03396112879411041,0.0,0.0,0.08480085523124035,0.9963979199858108
69,-0.10172326149360522,0.0034386263736562034,0.00764529143766457,0.03379087001446846,3.8822250670765004,4.005232305169888,0.7576452914376646,0.03379087001446846,0.0,0.0,0.0843767338273993,0.9964339249486742
