frame_id,dx,dy,dz,angle,x,y,z,qx,qy,qz,qw
1,-0.10008596415618326,0.0010595351156752475,0.009936555438851524,0.010585855339717587,-0.31866524918647676,-0.7231891394928429,1.2766374382591241,0.010585855339717587,0.0,0.0,0.026461549253104455,0.9996498318967125
2,-0.10002865471872777,0.0010595351156752475,0.009936555438851302,0.010591919842493202,-0.2185792850302935,-0.7242486746085182,1.2667008828202726,0.010591919842493202,0.0,0.0,0.02647670519801305,0.9996494305914737
3,-0.0999426905625445,0.0010595351156752475,0.009936555438851524,0.01060102963591242,-0.11855063031156574,-0.7246018529804099,1.2567643273814213,0.01060102963591242,0.0,0.0,0.026499471690655467,0.9996488273389391
4,-0.09982807168763357,0.0010595351156752475,0.009936555438851302,0.010613200429951737,-0.01860793974902124,-0.7238954962366264,1.2468277719425698,0.010613200429951737,0.0,0.0,0.02652988797835712,0.9996480205771708
5,-0.09969064053745283,0.0010595351156752475,0.009936555438851524,0.01062783043513815,0.08122013193861233,-0.7217764260052759,1.2368912165037185,0.01062783043513815,0.0,0.0,0.026566450099918114,0.9996470495775439
6,-0.09955376688583331,0.0010595351156752475,0.009936555438851302,0.010642441235362425,0.18091077247606516,-0.7179634738576776,1.226954661064867,0.010642441235362425,0.0,0.0,0.02660296419052763,0.999646078517931
7,-0.09942329317623322,0.0010595351156752475,0.009936555438851302,0.010656406310264478,0.28046453936189847,-0.7124635111379944,1.2170181056260156,0.010656406310264478,0.0,0.0,0.026637864505212536,0.9996451491277302
8,-0.0992992194086525,0.0010595351156752475,0.009936555438851524,0.010669720414899721,0.3798878325381317,-0.7053554191336002,1.2070815501871643,0.010669720414899721,0.0,0.0,0.026671137940734235,0.9996442619256845
9,-0.09918154558309106,0.0010595351156752475,0.009936555438851302,0.010682378529410431,0.4791870519467842,-0.6967180791318687,1.1971449947483128,0.010682378529410431,0.0,0.0,0.02670277195621797,0.9996434174093551
10,-0.09907027169954885,0.0010595351156752475,0.009936555438851524,0.010694375863677347,0.5783685975298752,-0.6866303724201741,1.1872084393094615,0.010694375863677347,0.0,0.0,0.02673275458476852,0.999642616054513
11,-0.09896539775802615,0.0010595351156752475,0.009936555438851302,0.010705707861782508,0.6774388692294241,-0.67517118028589,1.17727188387061,0.010705707861782508,0.0,0.0,0.02676107444461445,0.9996418583145514
12,-0.09886692375852235,0.0010595351156752475,0.009936555438851524,0.010716370206275874,0.7764042669874502,-0.6624193840163903,1.1673353284317587,0.010716370206275874,0.0,0.0,0.0267877207497623,0.9996411446199245
13,-0.09877484970103834,0.0010595351156752475,0.009936555438851302,0.01072635882223784,0.8752711907459726,-0.6484538648990491,1.1573987729929072,0.01072635882223784,0.0,0.0,0.026812683320141063,0.9996404753776099
14,-0.09868917558557311,0.0010595351156752475,0.009936555438851302,0.010735669881131582,0.9740460404470109,-0.63335350422124,1.1474622175540559,0.010735669881131582,0.0,0.0,0.026835952591221773,0.9996398509705992
15,-0.09860990141212778,0.0010595351156752475,0.009936555438851524,0.010744299804437122,1.072735216032584,-0.6171971832703369,1.1375256621152046,0.010744299804437122,0.0,0.0,0.026857519623091995,0.9996392717574151
16,-0.09853702718070134,0.0010595351156752475,0.009936555438851302,0.010752245267062399,1.1713451174447118,-0.6000637833337138,1.127589106676353,0.010752245267062399,0.0,0.0,0.026877376108973443,0.9996387380716579
17,-0.09847055289129436,0.0010595351156752475,0.009936555438851524,0.010759503200523586,1.2698821446254132,-0.5820321856987445,1.1176525512375017,0.010759503200523586,0.0,0.0,0.026895514383163333,0.9996382502215815
18,-0.09841047854390661,0.0010595351156752475,0.009936555438851302,0.010766070795890545,1.3683526975167075,-0.5631812716528029,1.1077159957986502,0.010766070795890545,0.0,0.0,0.026911927428389285,0.9996378084896995
19,-0.09835680413853831,0.0010595351156752475,0.009936555438851524,0.010771945506491095,1.4667631760606141,-0.5435899224832627,1.097779440359799,0.010771945506491095,0.0,0.0,0.0269266088825619,0.9996374131324245
20,-0.09830952967518924,0.0010595351156752475,0.009936555438851302,0.010777125050369906,1.5651199801991524,-0.523337019477498,1.0878428849209474,0.010777125050369906,0.0,0.0,0.026939553044914657,0.9996370643797379
21,-0.09826865515385919,0.0010595351156752475,0.009936555438851302,0.010781607412497226,1.6634295098743417,-0.5025014439228825,1.077906329482096,0.010781607412497226,0.0,0.0,0.026950754881519094,0.9996367624348937
22,-0.09823418057454902,0.0010595351156752475,0.009936555438851524,0.010785390846723522,1.7616981650282009,-0.4811620771067903,1.0679697740432448,0.010785390846723522,0.0,0.0,0.026960210030165528,0.9996365074741566
23,-0.09820610593725765,0.0010595351156752475,0.009936555438851302,0.010788473877477056,1.85993234560275,-0.45939780031659494,1.0580332186043933,0.010788473877477056,0.0,0.0,0.026967914804601888,0.9996362996465723
24,-0.0981844312419855,0.0010595351156752475,0.009936555438851524,0.010790855301200115,1.9581384515400075,-0.4372874948396706,1.048096663165542,0.010790855301200115,0.0,0.0,0.02697386619811994,0.9996361390737761
25,-0.09816915648873303,0.0010595351156752475,0.009936555438851302,0.010792534187522598,2.056322882781993,-0.41491004196339093,1.0381601077266904,0.010792534187522598,0.0,0.0,0.02697806188648571,0.9996360258498335
26,-0.09816028167750046,0.0010595351156752475,0.009936555438851524,0.01079350988017009,2.154492039270726,-0.39234432297513,1.0282235522878391,0.01079350988017009,0.0,0.0,0.026980500230206924,0.9996359600411181
27,-0.09815780680828556,0.0010595351156752475,0.009936555438851302,0.01079378199760518,2.2526523209482265,-0.3696692191622615,1.0182869968489876,0.01079378199760518,0.0,0.0,0.026981180276134355,0.9996359416862255
28,-0.0981617318810919,0.0010595351156752475,0.009936555438851413,0.010793350433399443,2.350810127756512,-0.3469636118121592,1.0083504414101363,0.010793350433399443,0.0,0.0,0.026980101758390652,0.9996359707959227
29,-0.0981720568959159,0.0010595351156752475,0.009936555438851413,0.010792215356338902,2.448971859637604,-0.3243063822121971,0.9984138859712849,0.010792215356338902,0.0,0.0,0.026977265098633674,0.9996360473531345
30,-0.09818878185275892,0.0010595351156752475,0.009936555438851302,0.010790377210257704,2.54714391653352,-0.30177641164974933,0.9884773305324335,0.010790377210257704,0.0,0.0,0.026972671405641177,0.9996361713129649
31,-0.09821190675162406,0.0010595351156752475,0.009936555438851524,0.010787836713604738,2.645332698386279,-0.27945258141218937,0.9785407750935822,0.010787836713604738,0.0,0.0,0.026966322474228695,0.9996363426027567
32,-0.09824143159250509,0.0010595351156752475,0.009936555438851302,0.010784594858743167,2.743544605137903,-0.2574137727868913,0.9686042196547306,0.010784594858743167,0.0,0.0,0.026958220783500464,0.999636561122185
33,-0.09827735637540869,0.0010595351156752475,0.009936555438851413,0.010780652910979637,2.841786036730408,-0.23573886706122882,0.9586676642158793,0.010780652910979637,0.0,0.0,0.02694836949442541,0.9996368267433888
34,-0.09831968110032818,0.0010595351156752475,0.009936555438851413,0.010776012407333902,2.9400633931058167,-0.2145067455225761,0.9487311087770279,0.010776012407333902,0.0,0.0,0.026936772446764908,0.9996371393111358
35,-0.09836840576726935,0.0010595351156752475,0.009936555438851413,0.010770675155040071,3.038383074206145,-0.19379628945830668,0.9387945533381765,0.010770675155040071,0.0,0.0,0.026923434155330436,0.9996374986430249
36,-0.09842353037622953,0.0010595351156752475,0.009936555438851413,0.010764643229793022,3.136751479973414,-0.17368638015579446,0.9288579978993251,0.010764643229793022,0.0,0.0,0.026908359805604895,0.9996379045297212
37,-0.09848505492720783,0.0010595351156752475,0.009936555438851302,0.01075791897373464,3.2351750103496437,-0.15425589890241365,0.9189214424604737,0.01075791897373464,0.0,0.0,0.026891555248714262,0.9996383567352272
38,-0.09855297942020735,0.0010595351156752475,0.009936555438851524,0.010750504993187778,3.3336600652768515,-0.13558372698553767,0.9089848870216224,0.010750504993187778,0.0,0.0,0.02687302699576927,0.9996388549971857
39,-0.09862730385522367,0.0010595351156752475,0.009936555438851302,0.010742404156142669,3.432213044697059,-0.1177487456925409,0.8990483315827709,0.010742404156142669,0.0,0.0,0.026852782211588974,0.9996393990272177
40,-0.0987080282322621,0.0010595351156752475,0.009936555438851413,0.010733619589495624,3.5308403485522826,-0.10082983631079645,0.8891117761439196,0.010733619589495624,0.0,0.0,0.026830828707805725,0.9996399885112902
41,-0.09879515255131688,0.0010595351156752475,0.009936555438851413,0.010724154676052273,3.6295483767845447,-0.08490588012767886,0.8791752207050682,0.010724154676052273,0.0,0.0,0.02680717493538216,0.9996406231101174
42,-0.09888867681239333,0.0010595351156752475,0.009936555438851413,0.010714013051291833,3.7283435293358616,-0.07005575843056189,0.8692386652662167,0.010714013051291833,0.0,0.0,0.026781829976531484,0.9996413024595914
43,-0.09898860101548879,0.0010595351156752475,0.009936555438851413,0.01070319859990729,3.827232206148255,-0.05635835250681942,0.8593021098273653,0.01070319859990729,0.0,0.0,0.02675480353607808,0.9996420261712419
44,-0.09909492516060148,0.0010595351156752475,0.009936555438851302,0.010691715452120085,3.9262208071637437,-0.04389254364382489,0.8493655543885139,0.010691715452120085,0.0,0.0,0.026726105932255082,0.9996427938327259
45,-0.09920764924773628,0.0010595351156752475,0.009936555438851524,0.010679567979779155,4.025315732324345,-0.032737213128952725,0.8394289989496626,0.010679567979779155,0.0,0.0,0.026695748086963348,0.9996436050083437
46,-0.09932677327688921,0.0010595351156752475,0.009936555438851302,0.010666760792253038,4.124523381572081,-0.02297124224957603,0.8294924435108111,0.010666760792253038,0.0,0.0,0.026663741515513678,0.9996444592395808
47,-0.09945229724806026,0.0010595351156752475,0.009936555438851413,0.01065329873211685,4.223850154848971,-0.014673512293070123,0.8195558880719598,0.01065329873211685,0.0,0.0,0.026630098315856707,0.9996453560456767
48,-0.0995842211612521,0.0010595351156752475,0.009936555438851413,0.010639186870646104,4.323302452097031,-0.007922904546806997,0.8096193326331084,0.010639186870646104,0.0,0.0,0.026594831157330415,0.9996462949242162
49,-0.09972247704082005,0.0010595351156752475,0.009936555438851413,0.010624437744702713,4.422886673258283,-0.002798300298162415,0.799682777194257,0.010624437744702713,0.0,0.0,0.026557971366502838,0.9996472748709396
50,-0.0998565547841368,0.0010595351156752475,0.009936555438851413,0.01061017334652742,4.522609150299103,0.0006222569865630148,0.7897462217554055,0.01061017334652742,0.0,0.0,0.026522322932714403,0.9996482213190062
51,-0.09996468060397135,0.0010595351156752475,0.009936555438851413,0.010598697816111755,4.62246570508324,0.0023902641436328296,0.7798096663165541,0.010598697816111755,0.0,0.0,0.026493644187881978,0.9996489818019353
52,-0.10004415170508185,0.0010595351156752475,0.009936555438851413,0.010590279261200463,4.722430385687211,0.002825586748049824,0.7698731108777027,0.010590279261200463,0.0,0.0,0.026472605182402555,0.9996495391760337
53,-0.10009496808745943,0.0010595351156752475,0.009936555438851302,0.010584903172028403,4.822474537392293,0.0022814031717057607,0.7599365554388513,0.010584903172028403,0.0,0.0,0.02645916966735341,0.9996498948834608
