frame_id,dx,dy,dz,angle,x,y,z,qx,qy,qz,qw
1,-0.1022429810067555,-0.004290029687336494,0.012089551089209172,-0.04193456281353535,-0.25876025857734025,0.8434305806873759,1.5599999229770147,-0.04193456281353535,0.0,0.0,-0.10464447543898324,0.9945096951564123
2,-0.10074766033558524,-0.004290029687336494,0.012089551089209172,-0.04255621983536988,-0.15651727757058476,0.8477206103747124,1.5479103718878056,-0.04255621983536988,0.0,0.0,-0.10618995827800758,0.99434586174073
3,-0.09850467932882961,-0.004290029687336494,0.012089551089209172,-0.04352402797497704,-0.05576961723499952,0.8491506202704912,1.5358208207985964,-0.04352402797497704,0.0,0.0,-0.10859548515508635,0.9940860227384406
4,-0.0955140379864889,-0.004290029687336494,0.012089551089209172,-0.044885007496067116,0.04273506209383009,0.8462906004789336,1.5237312697093872,-0.044885007496067116,0.0,0.0,-0.11197717684117398,0.9937107787815731
5,-0.0919214986958137,-0.004290029687336494,0.012089551089209172,-0.04663673946074603,0.138249100080319,0.8377105411042607,1.511641718620178,-0.04663673946074603,0.0,0.0,-0.11632787649100061,0.9932108664080828
6,-0.08831011100580596,-0.004290029687336494,0.012089551089209172,-0.04854098450267945,0.2301705987761327,0.8222592241649893,1.4995521675309689,-0.04854098450267945,0.0,0.0,-0.12105483260902108,0.9926458217823726
7,-0.08482563730371684,-0.004290029687336494,0.012089551089209172,-0.05053162875643582,0.31848070978193865,0.7999005993368187,1.4874626164417597,-0.05053162875643582,0.0,0.0,-0.12599332491220508,0.9920310892696698
8,-0.08146807758954577,-0.004290029687336494,0.012089551089209172,-0.0526104336772796,0.4033063470856555,0.7708774082097435,1.4753730653525505,-0.0526104336772796,0.0,0.0,-0.1311471980103272,0.9913629065352607
9,-0.07823743186329324,-0.004290029687336494,0.012089551089209172,-0.054778610460614045,0.48477442467520127,0.7354323923737585,1.4632835142633414,-0.054778610460614045,0.0,0.0,-0.13651887016524877,0.9906374705656978
10,-0.07513370012495901,-0.004290029687336494,0.012089551089209172,-0.05703667712008876,0.5630118565384945,0.6938082934188582,1.4511939631741322,-0.05703667712008876,0.0,0.0,-0.14210897879300094,0.9898510181569802
11,-0.0721568823745431,-0.004290029687336494,0.012089551089209172,-0.05938429486335615,0.6381455566634535,0.6462478529350377,1.439104412084923,-0.05938429486335615,0.0,0.0,-0.14791597746138813,0.9889999310473394
12,-0.06930697861204516,-0.004290029687336494,0.012089551089209172,-0.061820083329877026,0.7103024390379966,0.5929938125122916,1.4270148609957138,-0.061820083329877026,0.0,0.0,-0.1539356843279624,0.9880808697118277
13,-0.06658398883746608,-0.004290029687336494,0.012089551089209172,-0.06434141521638409,0.7796094176500418,0.5342889137406149,1.4149253099065047,-0.06434141521638409,0.0,0.0,-0.16016078451954804,0.9870909396312393
14,-0.06398791305080487,-0.004290029687336494,0.012089551089209172,-0.066944192155804,0.8461934064875078,0.47037589821000186,1.4028357588172955,-0.066944192155804,0.0,0.0,-0.1665802924159397,0.9860278932051669
15,-0.0615187512520623,-0.004290029687336494,0.012089551089209172,-0.0696226054961681,0.9101813195383127,0.4014975075104476,1.3907462077280863,-0.0696226054961681,0.0,0.0,-0.1731789842799398,0.9848903692308948
16,-0.05917650344123826,-0.004290029687336494,0.012089551089209172,-0.0723688878909367,0.971700070790375,0.32789648323194664,1.3786566566388772,-0.0723688878909367,0.0,0.0,-0.17993681722796695,0.9836781698329333
17,-0.05696116961833164,-0.004290029687336494,0.012089551089209172,-0.07517306436936323,1.0308765742316133,0.2498155669644938,1.366567105549668,-0.07517306436936323,0.0,0.0,-0.18682835711295143,0.9823925717239903
18,-0.05487274978334433,-0.004290029687336494,0.012089551089209172,-0.07802271475548701,1.087837743849945,0.16749750029808402,1.3544775544604588,-0.07802271475548701,0.0,0.0,-0.1938222452948049,0.981036664569108
19,-0.052911243936274666,-0.004290029687336494,0.012089551089209172,-0.08090276281303571,1.1427104936332892,0.08118502482271163,1.3423880033712496,-0.08090276281303571,0.0,0.0,-0.20088074209546183,0.9796157039651705
20,-0.05107665207712353,-0.004290029687336494,0.012089551089209172,-0.08379531106479657,1.195621737569564,-0.008879117871627928,1.3302984522820405,-0.08379531106479657,0.0,0.0,-0.20795939230798668,0.9781374602533597
21,-0.04936897420589115,-0.004290029687336494,0.012089551089209172,-0.08667954348797989,1.2466983896466874,-0.10245218619494087,1.3182089011928313,-0.08667954348797989,0.0,0.0,-0.2150068644957278,0.9766125374065785
22,-0.04778821032257641,-0.004290029687336494,0.012089551089209172,-0.08953172069573748,1.2960673638525786,-0.19929143855723178,1.3061193501036221,-0.08953172069573748,0.0,0.0,-0.22196501973931854,0.97505462924501
23,-0.04633436042718064,-0.004290029687336494,0.012089551089209394,-0.09232529312389026,1.343855574175155,-0.29915413336850616,1.294029799014413,-0.09232529312389026,0.0,0.0,-0.22876926551986612,0.9734806742578411
24,-0.04500742451970252,-0.004290029687336494,0.01208955108920895,-0.0950311564175618,1.3901899346023356,-0.401797529038769,1.2819402479252036,-0.0950311564175618,0.0,0.0,-0.235349245065057,0.971910866719427
25,-0.04380740260014293,-0.004290029687336494,0.012089551089209394,-0.09761806894196794,1.4351973591220382,-0.5069788839780254,1.2698506968359946,-0.09761806894196794,0.0,0.0,-0.24162990042313007,0.970368482186797
26,-0.04273429466850165,-0.004290029687336494,0.01208955108920895,-0.10005324358073533,1.479004761722181,-0.6144554565962813,1.2577611457467852,-0.10005324358073533,0.0,0.0,-0.2475329279792683,0.9688794814454532
27,-0.04178810072477912,-0.004290029687336494,0.012089551089209394,-0.10230311454150494,1.5217390563906827,-0.7239845053035419,1.2456715946575763,-0.10230311454150494,0.0,0.0,-0.2529786181799894,0.9674718697428588
28,-0.0409688207689749,-0.004290029687336494,0.01208955108920895,-0.10433426511334837,1.5635271571154619,-0.8353232885098117,1.2335820435683669,-0.10433426511334837,0.0,0.0,-0.25788803817329226,0.9661748080793302
29,-0.04027645480108877,-0.004290029687336494,0.012089551089209394,-0.10611448525364857,1.6044959778844368,-0.9482290646250965,1.221492492479158,-0.10611448525364857,0.0,0.0,-0.26218547956761135,0.965017499480658
30,-0.039711002821120056,-0.004290029687336494,0.01208955108920895,-0.10761391029292061,1.6447724326855255,-1.0624590920594015,1.2094029413899485,-0.10761391029292061,0.0,0.0,-0.2658010575243901,0.9640279030292204
31,-0.03927246482907121,-0.004290029687336494,0.012089551089209394,-0.1088061763086477,1.6844834355066456,-1.177770629222732,1.1973133903007396,-0.1088061763086477,0.0,0.0,-0.26867331680128115,0.9632313578985053
32,-0.03896084082493978,-0.004290029687336494,0.01208955108920895,-0.10966951649633518,1.7237559003357168,-1.2939209345250933,1.1852238392115302,-0.10966951649633518,0.0,0.0,-0.27075168023645624,0.9626492235747847
33,-0.038776130808727105,-0.004290029687336494,0.012089551089209394,-0.11018771862392637,1.7627167411606566,-1.4106672663764903,1.1731342881223212,-0.11018771862392637,0.0,0.0,-0.2719985698712132,0.9622976556076684
34,-0.03871833478043185,-0.004290029687336494,0.01208955108920895,-0.1103508681018261,1.8014928719693837,-1.5277668831869282,1.1610447370331118,-0.1103508681018261,0.0,0.0,-0.27239104313560175,0.9621866345047091
35,-0.03878745274005624,-0.004290029687336494,0.012089551089209394,-0.11015581478112398,1.8402112067498155,-1.6449770433664126,1.148955185943903,-0.11015581478112398,0.0,0.0,-0.2719218165232881,0.9623193470458106
36,-0.03898348468759805,-0.004290029687336494,0.01208955108920895,-0.10960632321405414,1.8789986594898718,-1.7620550053249493,1.1368656348546935,-0.10960632321405414,0.0,0.0,-0.2705995944479774,0.9626919857797666
37,-0.03930643062305861,-0.004290029687336494,0.012089551089209394,-0.1087128931957854,1.9179821441774698,-1.8787580274725422,1.1247760837654845,-0.1087128931957854,0.0,0.0,-0.26844867644862297,0.9632939884131856
38,-0.03975629054643748,-0.004290029687336494,0.01208955108920895,-0.1074922663174181,1.9572885748005284,-1.9948433682191982,1.1126865326762752,-0.1074922663174181,0.0,0.0,-0.2655078747713392,0.9641086911932736
39,-0.04033306445773377,-0.004290029687336494,0.012089551089209394,-0.10596666099418342,1.997044865346966,-2.110068285974921,1.1005969815870662,-0.10596666099418342,0.0,0.0,-0.2618288291786498,0.9651143270156844
40,-0.04103675235694926,-0.004290029687336494,0.012089551089209172,-0.10416279942165375,2.0373779298046997,-2.2241900391497165,1.0885074304978568,-0.10416279942165375,0.0,0.0,-0.2574738499127105,0.9662852666842887
41,-0.04186735424408372,-0.004290029687336494,0.012089551089209172,-0.10211080269941641,2.078414682161649,-2.3369658861535907,1.0764178794086476,-0.10211080269941641,0.0,0.0,-0.2525134482164308,0.9675933848832617
42,-0.04282487011913405,-0.004290029687336494,0.01208955108920895,-0.09984303399293672,2.1202820364057327,-2.448153085396546,1.0643283283194385,-0.09984303399293672,0.0,0.0,-0.24702372443039483,0.9690094321360017
43,-0.04390929998210602,-0.004290029687336494,0.012089551089209394,-0.09739296465514838,2.1631069065248667,-2.5575088952885916,1.0522387772302295,-0.09739296465514838,0.0,0.0,-0.24108377692706875,0.9705043083379792
44,-0.045120643832994745,-0.004290029687336494,0.01208955108920895,-0.09479412649675423,2.2070162065069727,-2.6647905742397313,1.0401492261410201,-0.09479412649675423,0.0,0.0,-0.23477327388849464,0.9720501581027997
45,-0.04645890167180067,-0.004290029687336494,0.012089551089209394,-0.09207919738446495,2.2521368503399675,-2.769755380659968,1.0280596750518112,-0.09207919738446495,0.0,0.0,-0.2281702986449732,0.9736212378621698
46,-0.047924073498525566,-0.004290029687336494,0.01208955108920895,-0.08927924971490321,2.298595752011768,-2.872160572959312,1.0159701239626018,-0.08927924971490321,0.0,0.0,-0.22134954306988744,0.9751945343277679
47,-0.049516159313171215,-0.004290029687336494,0.012089551089209394,-0.0864231743878511,2.3465198255102937,-2.971763409547762,1.0038805728733928,-0.0864231743878511,0.0,0.0,-0.21438088718463758,0.9767501396006697
48,-0.0512351591157314,-0.004290029687336494,0.012089551089209172,-0.0835372783931371,2.396035984823465,-3.0683211488353286,0.9917910217841834,-0.0835372783931371,0.0,0.0,-0.20732837052734157,0.9782714075216945
49,-0.053081072906212334,-0.004290029687336494,0.012089551089209172,-0.08064504300534958,2.4472711439391963,-3.161591049232015,0.9797014706949743,-0.08064504300534958,0.0,0.0,-0.2002495345170565,0.9797449279918229
50,-0.05505390068461047,-0.004290029687336494,0.012089551089209172,-0.07776702214557442,2.5003522168454086,-3.251330369147826,0.9676119196057651,-0.07776702214557442,0.0,0.0,-0.1931950961750285,0.9811603614159724
51,-0.057153642450926245,-0.004290029687336494,0.012089551089209172,-0.07492085648734599,2.555406117530019,-3.337296366992768,0.9555223685165559,-0.07492085648734599,0.0,0.0,-0.18620890214215188,0.9825101753992243
52,-0.05938029820516455,-0.004290029687336494,0.012089551089209172,-0.07212137778922559,2.6125597599809454,-3.4192463011768464,0.9434328174273467,-0.07212137778922559,0.0,0.0,-0.17932810710978647,0.983789321958935
53,-0.061733867947314724,-0.004290029687336494,0.012089551089209172,-0.06938077900820794,2.67194005818611,-3.496937430110065,0.9313432663381376,-0.06938077900820794,0.0,0.0,-0.1725835212201837,0.984994887399545
54,-0.06421435167738876,-0.004290029687336494,0.012089551089209172,-0.06670882825702001,2.7336739261334246,-3.5701270122024304,0.9192537152489284,-0.06670882825702001,0.0,0.0,-0.1660000751890669,0.9861257399729632
55,-0.06682174939537822,-0.004290029687336494,0.012089551089209172,-0.06411310796919022,2.7978882778108134,-3.6385723058639456,0.9071641641597192,-0.06411310796919022,0.0,0.0,-0.15959735842395664,0.9871821935104457
56,-0.0695560611012862,-0.004290029687336494,0.012089551089209172,-0.06159926421451965,2.8647100272061916,-3.70203056950462,0.8950746130705101,-0.06159926421451965,0.0,0.0,-0.1533901930403203,0.9881656989994407
57,-0.07241728679511494,-0.004290029687336494,0.012089551089209172,-0.05917125459719621,2.934266088307478,-3.760259061534456,0.8829850619813009,-0.05917125459719621,0.0,0.0,-0.14738921448575568,0.9890785709200619
58,-0.07540542647685777,-0.004290029687336494,0.012089551089209172,-0.056831586333058466,3.0066833751025928,-3.8130150403634584,0.8708955108920917,-0.056831586333058466,0.0,0.0,-0.1416014368249074,0.9899237511491084
59,-0.07852048014652091,-0.004290029687336494,0.012089551089209172,-0.0545815388168451,3.0820888015794505,-3.8600557644016344,0.8588059598028825,-0.0545815388168451,0.0,0.0,-0.13603078722943804,0.9907046103282953
60,-0.0817624478041048,-0.004290029687336494,0.012089551089209172,-0.05242136721102141,3.1606092817259714,-3.901138492058985,0.8467164087136734,-0.05242136721102141,0.0,0.0,-0.13067859967396583,0.991424784634342
61,-0.08513132944960367,-0.004290029687336494,0.012089551089209172,-0.05035048532696853,3.2423717295300762,-3.9360204817455218,0.8346268576244642,-0.05035048532696853,0.0,0.0,-0.12554406222402809,0.9920880447018245
62,-0.08862712508302284,-0.004290029687336494,0.012089551089209172,-0.04836762737309452,3.32750305897968,-3.964458991871246,0.822537306535255,-0.04836762737309452,0.0,0.0,-0.12062461567776749,0.9926981928524857
63,-0.09224973121908508,-0.004290029687336494,0.012089551089209172,-0.04647104113101485,3.4161301840627027,-3.9862112808461623,0.8104477554460459,-0.04647104113101485,0.0,0.0,-0.11591643306777231,0.9932589695265001
64,-0.09581120568805979,-0.004290029687336494,0.012089551089209172,-0.04474597835188994,3.508379915281788,-4.001034805011019,0.7983582043568367,-0.04474597835188994,0.0,0.0,-0.1116317831864867,0.993749638984893
65,-0.09873514863792465,-0.004290029687336494,0.012089551089209172,-0.04342256123491496,3.6041911209698476,-4.009046487632605,0.7862686532676275,-0.04342256123491496,0.0,0.0,-0.10834331499372951,0.9941135378296432
66,-0.10091143125220103,-0.004290029687336494,0.012089551089209172,-0.042487237759656654,3.7029262696077723,-4.01146570111548,0.7741791021784183,-0.042487237759656654,0.0,0.0,-0.1060184765959715,0.9943641599636772
67,-0.10234005353089604,-0.004290029687336494,0.012089551089209172,-0.041894833206757714,3.8038377008599733,-4.0097224553554245,0.7620895510892092,-0.041894833206757714,0.0,0.0,-0.10454569622516037,0.9945200839604983
