frame_id,dx,dy,dz,angle,x,y,z,qx,qy,qz,qw
1,-0.10115154152991113,-0.0031309889906183663,-0.00743243243243244,-0.030943568111395255,-1.81134155465641,0.1832729054133712,0.20743243243243245,-0.030943568111395255,0.0,0.0,-0.07728178554245135,0.9970092906404486
2,-0.10038384717663718,-0.0031309889906183663,-0.007432432432432412,-0.03118005902152209,-1.7101900131264989,0.18640389440398958,0.2148648648648649,-0.03118005902152209,0.0,0.0,-0.07787123108756992,0.9969634252914729
3,-0.09923230564672592,-0.0031309889906183663,-0.00743243243243244,-0.031541649530755306,-1.6098061659498617,0.18744755740086236,0.2222972972972973,-0.031541649530755306,0.0,0.0,-0.07877243042928578,0.9968926242099815
4,-0.09769691694017757,-0.0031309889906183663,-0.00743243243243244,-0.03203701642296919,-1.5105738603031358,0.1853602314071168,0.22972972972972974,-0.03203701642296919,0.0,0.0,-0.08000693871079467,0.9967943066441176
5,-0.09585157427046798,-0.0031309889906183663,-0.007432432432432412,-0.03265336159562971,-1.4128769433629582,0.17909825342588004,0.23716216216216218,-0.03265336159562971,0.0,0.0,-0.08154276652204252,0.9966698436432857
6,-0.09399185049149983,-0.0031309889906183663,-0.0074324324324324675,-0.03329896850560699,-1.3170253690924902,0.1678188727433921,0.2445945945945946,-0.03329896850560699,0.0,0.0,-0.08315130195712424,0.9965369340786296
7,-0.09219163881674808,-0.0031309889906183663,-0.007432432432432412,-0.03394869753999788,-1.2230335186009904,0.1514829877783443,0.25202702702702706,-0.03394869753999788,0.0,0.0,-0.08476988900094153,0.9964005549570755
8,-0.09045093924621339,-0.0031309889906183663,-0.007432432432432412,-0.03460151299795295,-1.1308418797842423,0.1302524092325406,0.2594594594594595,-0.03460151299795295,0.0,0.0,-0.08639593959612438,0.9962608803025956
9,-0.08876975177989532,-0.0031309889906183663,-0.0074324324324324675,-0.03525628427951501,-1.040390940538029,0.10428894780778515,0.2668918918918919,-0.03525628427951501,0.0,0.0,-0.08802663065083789,0.996118121658401
10,-0.08714807641779454,-0.0031309889906183663,-0.007432432432432412,-0.035911784138318324,-0.9516211887581336,0.07375441420588195,0.27432432432432435,-0.035911784138318324,0.0,0.0,-0.08965889994270469,0.9959725305755496
11,-0.08558591315991015,-0.0031309889906183663,-0.0074324324324324675,-0.036566687731938226,-0.8644731123403391,0.03881061912863505,0.28175675675675677,-0.036566687731938226,0.0,0.0,-0.091289444017167,0.9958244008915611
12,-0.0840832620062425,-0.0031309889906183663,-0.007432432432432412,-0.03721957259533143,-0.7788871991804289,-0.0003806267221515211,0.28918918918918923,-0.03721957259533143,0.0,0.0,-0.09291471838747724,0.9956740707214263
13,-0.08264012295679224,-0.0031309889906183663,-0.007432432432432412,-0.03786891966422928,-0.6948039371741864,-0.04365751264467355,0.29662162162162165,-0.03786891966422928,0.0,0.0,-0.09453094034594521,0.9955219240766681
14,-0.08125649601155827,-0.0031309889906183663,-0.007432432432432412,-0.038513115473670145,-0.6121638142173942,-0.0908582279371272,0.30405405405405406,-0.038513115473670145,0.0,0.0,-0.0961340946908101,0.9953683920227617
15,-0.07993238117054141,-0.0031309889906183663,-0.0074324324324324675,-0.03915045565154215,-0.5309073182058359,-0.14182096189770818,0.31148648648648647,-0.03915045565154215,0.0,0.0,-0.09771994265884973,0.9952139532817811
16,-0.07866777843374162,-0.0031309889906183663,-0.0074324324324324675,-0.03977914981753584,-0.4509749370352945,-0.19638390382461268,0.31891891891891894,-0.03977914981753584,0.0,0.0,-0.09928403432936952,0.995059134186147
17,-0.07746268780115784,-0.0031309889906183663,-0.007432432432432412,-0.04039732798378686,-0.3723071586015529,-0.2543852430160365,0.3263513513513514,-0.04039732798378686,0.0,0.0,-0.1008217247293785,0.9949045078913822
18,-0.0763171092727919,-0.0031309889906183663,-0.007432432432432412,-0.041003048534391934,-0.29484447080039505,-0.3156631687701756,0.3337837837837838,-0.041003048534391934,0.0,0.0,-0.1023281938218203,0.9947506927613391
19,-0.07523104284864193,-0.0031309889906183663,-0.007432432432432412,-0.04159430783668445,-0.21852736152760316,-0.3800558703852259,0.34121621621621623,-0.04159430783668445,0.0,0.0,-0.1037984704982112,0.9945983498489388
20,-0.07420448852870934,-0.0031309889906183663,-0.0074324324324324675,-0.04216905150759583,-0.14329631867896123,-0.4474015371593833,0.34864864864864864,-0.04216905150759583,0.0,0.0,-0.10522746062386407,0.9944481794093915
21,-0.07323744631299367,-0.0031309889906183663,-0.007432432432432412,-0.04272518732387765,-0.06909183015025189,-0.5175383583908442,0.3560810810810811,-0.04272518732387765,0.0,0.0,-0.10660997909879287,0.9943009164013452
22,-0.0723299162014943,-0.0031309889906183663,-0.0074324324324324675,-0.043260599725784894,0.004145616162741783,-0.5903045233778038,0.3635135135135135,-0.043260599725784894,0.0,0.0,-0.10794078580136025,0.9941573249544485
23,-0.07148189819421237,-0.0031309889906183663,-0.007432432432432412,-0.04377316582085938,0.07647553236423608,-0.6655382214184586,0.370945945945946,-0.04377316582085938,0.0,0.0,-0.10921462517685436,0.9940181918091234
24,-0.07069339229114635,-0.0031309889906183663,-0.007432432432432412,-0.0442607727487097,0.14795743055844846,-0.7430776418110043,0.3783783783783784,-0.0442607727487097,0.0,0.0,-0.11042626912195559,0.9938843187654213
25,-0.06996439849229835,-0.0031309889906183663,-0.0074324324324324675,-0.044721336220509875,0.2186508228495948,-0.8227609738536367,0.3858108108108108,-0.044721336220509875,0.0,0.0,-0.11157056270178516,0.9937565142118099
26,-0.06929491679766608,-0.0031309889906183663,-0.007432432432432412,-0.045152820000013374,0.28861522134189316,-0.9044264068445522,0.3932432432432433,-0.045152820000013374,0.0,0.0,-0.11264247212300463,0.9936355838404833
27,-0.06868494720725171,-0.0031309889906183663,-0.0074324324324324675,-0.04555325604795299,0.35791013813955924,-0.9879121300819466,0.4006756756756757,-0.04555325604795299,0.0,0.0,-0.11363713427847759,0.9935223206918782
28,-0.06813448972105357,-0.0031309889906183663,-0.007432432432432412,-0.04592076501090902,0.42659508534681095,-1.0730563328640155,0.40810810810810816,-0.04592076501090902,0.0,0.0,-0.11454990708145289,0.9934174947058414
29,-0.06764354433907149,-0.0031309889906183663,-0.007432432432432412,-0.04625357670098474,0.4947295750678645,-1.159697204488955,0.41554054054054057,-0.04625357670098474,0.0,0.0,-0.11537641972461536,0.9933218419885518
30,-0.06721211106130798,-0.0031309889906183663,-0.007432432432432412,-0.046550050186092845,0.562373119406936,-1.2476729342549613,0.422972972972973,-0.046550050186092845,0.0,0.0,-0.11611262193682069,0.9932360540309423
31,-0.06684018988776042,-0.0031309889906183663,-0.0074324324324324675,-0.046808693094053944,0.629585230468244,-1.3368217114602303,0.4304054054054054,-0.046808693094053944,0.0,0.0,-0.11675483127193495,0.993160767134235
32,-0.06652778081842947,-0.0031309889906183663,-0.0074324324324324675,-0.04702817972859223,0.6964254203560044,-1.4269817254029573,0.43783783783783786,-0.04702817972859223,0.0,0.0,-0.11729977745357283,0.9930965523096645
33,-0.06627488385331537,-0.0031309889906183663,-0.007432432432432412,-0.0472073676028581,0.7629532011744339,-1.5179911653813396,0.44527027027027033,-0.0472073676028581,0.0,0.0,-0.11774464281939212,0.9930439059212507
34,-0.06608149899241822,-0.0031309889906183663,-0.007432432432432412,-0.04734531201675928,0.8292280850277493,-1.6096882206935714,0.45270270270270274,-0.04734531201675928,0.0,0.0,-0.11808709795992105,0.9930032413317713
35,-0.06594762623573835,-0.0031309889906183663,-0.0074324324324324675,-0.04744127833821356,0.8953095840201675,-1.7019110806378497,0.46013513513513515,-0.04744127833821356,0.0,0.0,-0.11832533172976989,0.9929748817926061
36,-0.06587326558327455,-0.0031309889906183663,-0.007432432432432412,-0.04749475169469632,0.9612572102559058,-1.7944979345123708,0.4675675675675676,-0.04749475169469632,0.0,0.0,-0.1184580749216451,0.9929590547881911
37,-0.06585841703502826,-0.0031309889906183663,-0.007432432432432412,-0.047505443838813104,1.0271304758391804,-1.88728697161533,0.47500000000000003,-0.047505443838813104,0.0,0.0,-0.11848461703261172,0.9929558880064286
38,-0.06590308059099881,-0.0031309889906183663,-0.0074324324324324675,-0.047473297018162774,1.0929888928742086,-1.9801163812449232,0.48243243243243245,-0.047473297018162774,0.0,0.0,-0.11840481571294609,0.9929654070590693
39,-0.06600725625118531,-0.0031309889906183663,-0.007432432432432412,-0.04739848475294783,1.1588919734652074,-2.072824352699347,0.4898648648648649,-0.04739848475294783,0.0,0.0,-0.11821909866464542,0.9929875350229321
40,-0.06617094401558932,-0.0031309889906183663,-0.007432432432432412,-0.04728140950186517,1.2248992297163928,-2.165249075276796,0.4972972972972973,-0.04728140950186517,0.0,0.0,-0.1179284579426344,0.9930220938162818
41,-0.06639414388421039,-0.0031309889906183663,-0.007432432432432412,-0.04712269727465357,1.291070173731982,-2.257228738275468,0.5047297297297297,-0.04712269727465357,0.0,0.0,-0.11753443679950056,0.9930688073674574
42,-0.06667685585704741,-0.0031309889906183663,-0.007432432432432412,-0.046923189325166,1.3574643176161925,-2.3486015309935566,0.5121621621621621,-0.046923189325166,0.0,0.0,-0.11703910939679019,0.9931273064776772
43,-0.06701907993410261,-0.0031309889906183663,-0.007432432432432412,-0.046683931129041116,1.4241411734732399,-2.43920564272926,0.5195945945945946,-0.046683931129041116,0.0,0.0,-0.1164450538755265,0.9931971352294194
44,-0.06742081611537332,-0.0031309889906183663,-0.007432432432432523,-0.046406158912266515,1.4911602534073425,-2.528879262780773,0.527027027027027,-0.046406158912266515,0.0,0.0,-0.11575531942922467,0.9932777587481953
45,-0.06788206440086197,-0.0031309889906183663,-0.007432432432432412,-0.046091284048904134,1.5585810695227158,-2.6174605804462923,0.5344594594594595,-0.046091284048904134,0.0,0.0,-0.11497338814888146,0.9933685720907254
46,-0.06840282479056659,-0.0031309889906183663,-0.007432432432432523,-0.04574087568645026,1.6264631339235778,-2.7047877850240134,0.5418918918918919,-0.04574087568645026,0.0,0.0,-0.11410313250752255,0.9934689100077418
47,-0.0689830972844887,-0.0031309889906183663,-0.007432432432432412,-0.04535664198453288,1.6948659587141444,-2.790699065812131,0.5493243243243244,-0.04535664198453288,0.0,0.0,-0.1131487694189653,0.9935780573155658
48,-0.06962288188262566,-0.0031309889906183663,-0.007432432432432412,-0.04494041036674458,1.763849055998633,-2.875032612108844,0.5567567567567568,-0.04494041036674458,0.0,0.0,-0.11211481184105458,0.9936952596072123
49,-0.07032217858498235,-0.0031309889906183663,-0.007432432432432412,-0.044494107186450325,1.8334719378812587,-2.9576266132123443,0.5641891891891893,-0.044494107186450325,0.0,0.0,-0.11100601889784072,0.9938197340405615
50,-0.071080987391555,-0.0031309889906183663,-0.007432432432432412,-0.04401973719644038,1.903794116466241,-3.038319258420832,0.5716216216216217,-0.04401973719644038,0.0,0.0,-0.10982734547041081,0.9939506799569701
51,-0.07189930830234337,-0.0031309889906183663,-0.007432432432432412,-0.04351936319042702,1.974875103857796,-3.1169487370325006,0.5790540540540541,-0.04351936319042702,0.0,0.0,-0.10858389215490138,0.9940872891071955
52,-0.07277714131735058,-0.0031309889906183663,-0.007432432432432412,-0.042995086153561776,2.0467744121601394,-3.193353238345547,0.5864864864864865,-0.042995086153561776,0.0,0.0,-0.10728085641322353,0.9942287552908764
53,-0.07371448643657175,-0.0031309889906183663,-0.007432432432432412,-0.04244902622109186,2.11955155347749,-3.267370951658165,0.5939189189189189,-0.04244902622109186,0.0,0.0,-0.10592348565125162,0.9943742832492648
54,-0.07471134366001042,-0.0031309889906183663,-0.007432432432432523,-0.041883304701132745,2.1932660399140618,-3.3388400662685545,0.6013513513513513,-0.041883304701132745,0.0,0.0,-0.1045170328557879,0.9945230966865587
55,-0.07576771298766971,-0.0031309889906183663,-0.007432432432432412,-0.04130002737142242,2.267977383574072,-3.4075987714749076,0.6087837837837838,-0.04130002737142242,0.0,0.0,-0.1030667153105822,0.9946744453312789
56,-0.07688359441954074,-0.0031309889906183663,-0.007432432432432412,-0.04070126921260213,2.343745096561742,-3.473485256575423,0.6162162162162163,-0.04070126921260213,0.0,0.0,-0.10157767679728123,0.9948276109841679
57,-0.07805898795563282,-0.0031309889906183663,-0.007432432432432523,-0.04008906069392265,2.4206286909812826,-3.536337710868296,0.6236486486486487,-0.04008906069392265,0.0,0.0,-0.10005495357397605,0.9949819125317352
58,-0.07929389359593797,-0.0031309889906183663,-0.007432432432432412,-0.03946537568284943,2.4986876789369155,-3.59599432365172,0.6310810810810812,-0.03946537568284943,0.0,0.0,-0.0985034443157857,0.9951367099338296
59,-0.0805883113404624,-0.0031309889906183663,-0.007432432432432412,-0.038832121008738715,2.5779815725328534,-3.6522932842238944,0.6385135135135136,-0.038832121008738715,0.0,0.0,-0.09692788410087855,0.9952914072188741
60,-0.08194224118920346,-0.0031309889906183663,-0.007432432432432412,-0.03819112767395724,2.658569883873316,-3.705072781883014,0.645945945945946,-0.03819112767395724,0.0,0.0,-0.09533282243492666,0.9954454545411269
61,-0.08335568314215935,-0.0031309889906183663,-0.007432432432432412,-0.037544143673614215,2.7405121250625193,-3.7541710059272733,0.6533783783783784,-0.037544143673614215,0.0,0.0,-0.09372260522748434,0.9955983493705547
62,-0.08482863719933542,-0.0031309889906183663,-0.007432432432432412,-0.03689282835821218,2.8238678082046786,-3.799426145654869,0.6608108108108108,-0.03689282835821218,0.0,0.0,-0.09210136056709144,0.9957496368975942
63,-0.08636110336072589,-0.0031309889906183663,-0.007432432432432412,-0.036238748251830814,2.908696445404014,-3.840676390363999,0.6682432432432432,-0.036238748251830814,0.0,0.0,-0.09047298808767618,0.9958989097425939
64,-0.08795308162633297,-0.0031309889906183663,-0.007432432432432412,-0.03558337422185897,2.99505754876474,-3.877759929352858,0.6756756756756757,-0.03558337422185897,0.0,0.0,-0.08884115167695701,0.9960458070634662
65,-0.08960457199615934,-0.0031309889906183663,-0.007432432432432523,-0.0349280798846084,3.083010630391073,-3.910514951919641,0.6831081081081081,-0.0349280798846084,0.0,0.0,-0.087209275247664,0.996190013155511
66,-0.09131557447019967,-0.0031309889906183663,-0.007432432432432412,-0.034274141123771674,3.1726152023872323,-3.938779647362545,0.6905405405405406,-0.034274141123771674,0.0,0.0,-0.08558054127308372,0.9963312556350955
67,-0.09308608904845883,-0.0031309889906183663,-0.007432432432432523,-0.03362273659526902,3.263930776857432,-3.962392204979765,0.697972972972973,-0.03362273659526902,0.0,0.0,-0.0839578917788599,0.9964693032944112
68,-0.09491611573093284,-0.0031309889906183663,-0.007432432432432412,-0.03297494909200839,3.3570168659058908,-3.9811908140694987,0.7054054054054055,-0.03297494909200839,0.0,0.0,-0.08234403148183099,0.9966039637084128
69,-0.09679636285540516,-0.0031309889906183663,-0.007432432432432412,-0.0323348690683271,3.4519329816368236,-3.9950136639299396,0.7128378378378379,-0.0323348690683271,0.0,0.0,-0.08074916101400877,0.9967344546044015
70,-0.09851411303369284,-0.0031309889906183663,-0.007432432432432412,-0.03177144192146754,3.5487293444922288,-4.0037242074658135,0.7202702702702704,-0.03177144192146754,0.0,0.0,-0.07934511324771736,0.9968472064482635
71,-0.0998571978940439,-0.0031309889906183663,-0.007432432432432412,-0.03134439600415623,3.6472434575259216,-4.007764266475385,0.7277027027027028,-0.03134439600415623,0.0,0.0,-0.07828081940681793,0.9969313483450087
72,-0.10081643557775921,-0.0031309889906183663,-0.007432432432432412,-0.031046356143014063,3.7471006554199655,-4.008152538899758,0.7351351351351352,-0.031046356143014063,0.0,0.0,-0.07753798454426013,0.9969893986160605
73,-0.10139182608483566,-0.0031309889906183663,-0.007432432432432412,-0.030870282785226508,3.8479170909977247,-4.0059326877358075,0.7425675675675676,-0.030870282785226508,0.0,0.0,-0.0770991188687652,0.9970234329591556
