frame_id,dx,dy,dz,angle,x,y,z,qx,qy,qz,qw
1,-0.10150738135616333,-0.003643740625651204,-0.007971014492753642,-0.0358809058449064,-1.1302228349091985,0.22954010530345614,0.20797101449275363,-0.0358809058449064,0.0,0.0,-0.0895820148455609,0.9959794488925009
2,-0.10050246045205447,-0.003643740625651204,-0.007971014492753614,-0.03623936540066044,-1.0287154535530352,0.23318384592910735,0.21594202898550727,-0.03623936540066044,0.0,0.0,-0.09047452463218492,0.9958987701531617
3,-0.09899507909589111,-0.003643740625651204,-0.007971014492753642,-0.036790682024813,-0.9282129931009807,0.2343984261376577,0.22391304347826088,-0.036790682024813,0.0,0.0,-0.09184707713082994,0.9957731239707784
4,-0.09698523728767328,-0.003643740625651204,-0.007971014492753614,-0.03755239237541664,-0.8292179140050896,0.23196926572055696,0.23188405797101452,-0.03755239237541664,0.0,0.0,-0.09374313619230215,0.9955964164343057
5,-0.09457068248183675,-0.003643740625651204,-0.007971014492753614,-0.03851023470637436,-0.7322326767174163,0.22468178446925458,0.23985507246376814,-0.03851023470637436,0.0,0.0,-0.09612692612653954,0.995369084346838
6,-0.09214240449612343,-0.003643740625651204,-0.007971014492753614,-0.0395240724254137,-0.6376619942355796,0.21155768370364328,0.24782608695652175,-0.0395240724254137,0.0,0.0,-0.0986494714629139,0.9951222446413746
7,-0.08979815078496922,-0.003643740625651204,-0.007971014492753614,-0.04055476385872668,-0.5455195897394561,0.19256379085738812,0.25579710144927537,-0.04055476385872668,0.0,0.0,-0.10121330106418204,0.9948647484395511
8,-0.0875379213483739,-0.003643740625651204,-0.00797101449275367,-0.04160069547913703,-0.4557214389544869,0.1679032148925971,0.263768115942029,-0.04160069547913703,0.0,0.0,-0.1038143533315825,0.9945966921533297
9,-0.08536171618633748,-0.003643740625651204,-0.007971014492753614,-0.04265999017186415,-0.368183517606113,0.13777906477137827,0.27173913043478265,-0.04265999017186415,0.0,0.0,-0.10644791371338946,0.9943182798611654
10,-0.08326953529886014,-0.003643740625651204,-0.007971014492753614,-0.04373049047172187,-0.28282180141977553,0.10239444945583975,0.27971014492753626,-0.04373049047172187,0.0,0.0,-0.10910857437203154,0.9940298380825914
11,-0.08126137868594176,-0.003643740625651204,-0.007971014492753614,-0.04480974340453862,-0.1995522661209154,0.06195247790808949,0.2876811594202899,-0.04480974340453862,0.0,0.0,-0.1117901980125244,0.9937318308418628
12,-0.07933724634758224,-0.003643740625651204,-0.00797101449275367,-0.04589498757614265,-0.11829088743497364,0.016656259090235624,0.2956521739130435,-0.04589498757614265,0.0,0.0,-0.11448588745697183,0.9934248746499101
13,-0.07749713828378181,-0.003643740625651204,-0.007971014492753614,-0.046983143225308124,-0.0389536410873914,-0.03329109803561371,0.30362318840579716,-0.046983143225308124,0.0,0.0,-0.11718796271996783,0.993109752944529
14,-0.07574105449454012,-0.003643740625651204,-0.007971014492753614,-0.04807080601964771,0.038543497196390414,-0.08768648450735067,0.3115942028985508,-0.04807080601964771,0.0,0.0,-0.1198879474818925,0.992787429437228
15,-0.07406899497985774,-0.003643740625651204,-0.007971014492753614,-0.04915424541949682,0.11428455169093053,-0.14632679136286686,0.3195652173913044,-0.04915424541949682,0.0,0.0,-0.12257656695661383,0.9924590597264609
16,-0.07248095973973415,-0.003643740625651204,-0.007971014492753614,-0.0502294084575242,0.18835354667078827,-0.20900890964005464,0.327536231884058,-0.0502294084575242,0.0,0.0,-0.125243759190616,0.9921260004575039
17,-0.07097694877416932,-0.003643740625651204,-0.007971014492753614,-0.05129192977373671,0.2608345064105224,-0.27552973037680567,0.3355072463768116,-0.05129192977373671,0.0,0.0,-0.12787870179464705,0.9917898152468172
18,-0.06955696208316381,-0.003643740625651204,-0.007971014492753614,-0.05233714869929278,0.33181145518469174,-0.3456861446110119,0.34347826086956523,-0.05233714869929278,0.0,0.0,-0.13046985597940225,0.9914522765522877
19,-0.06822099966671724,-0.003643740625651204,-0.00797101449275367,-0.05336013409109595,0.40136841726785555,-0.4192750433805653,0.35144927536231885,-0.05336013409109595,0.0,0.0,-0.13300502952768536,0.9911153626699263
20,-0.0669690615248294,-0.003643740625651204,-0.007971014492753614,-0.05435571747673754,0.4695894169345728,-0.4960933177233579,0.3594202898550725,-0.05435571747673754,0.0,0.0,-0.13547145997436202,0.990781249081963
21,-0.06580114765750067,-0.003643740625651204,-0.007971014492753614,-0.055318534872269426,0.5365584784594022,-0.5759378586772816,0.36739130434782613,-0.055318534872269426,0.0,0.0,-0.13785591877486694,0.9904522934794675
22,-0.06471725806473083,-0.003643740625651204,-0.00797101449275367,-0.05624307738269621,0.6023596261169029,-0.6586055572802284,0.37536231884057975,-0.05624307738269621,0.0,0.0,-0.14014483662282706,0.9901310139410648
23,-0.06371739274652011,-0.003643740625651204,-0.007971014492753614,-0.05712375038999333,0.6670768841816337,-0.7438933045700903,0.3833333333333334,-0.05712375038999333,0.0,0.0,-0.14232444933648694,0.9898200599710363
24,-0.06280155170286783,-0.003643740625651204,-0.007971014492753614,-0.0579549407834396,0.7307942769281538,-0.8315979915847587,0.39130434782608703,-0.0579549407834396,0.0,0.0,-0.14438096289173669,0.9895221763833567
25,-0.06196973493377533,-0.003643740625651204,-0.007971014492753614,-0.05873109130460823,0.7935958286310216,-0.9215165093621259,0.39927536231884064,-0.05873109130460823,0.0,0.0,-0.14630073526773582,0.9892401603554719
26,-0.061221942439241284,-0.003643740625651204,-0.007971014492753614,-0.05944678068209943,0.855565563564797,-1.013445748940084,0.40724637681159426,-0.05944678068209943,0.0,0.0,-0.14807047183203545,0.9889768123527661
27,-0.06055817421926635,-0.003643740625651204,-0.007971014492753614,-0.06009680784107092,0.9167875060040382,-1.1071826013565251,0.41521739130434787,-0.06009680784107092,0.0,0.0,-0.14967743007812767,0.988734882021064
28,-0.0599784302738503,-0.003643740625651204,-0.007971014492753614,-0.060676278115502,0.9773456802233046,-1.202523957649341,0.4231884057971015,-0.060676278115502,0.0,0.0,-0.15110962869960018,0.9885170105335916
29,-0.05948271060299293,-0.003643740625651204,-0.007971014492753614,-0.06118068909412361,1.037324110497155,-1.2992667088564231,0.4311594202898551,-0.06118068909412361,0.0,0.0,-0.1523560553043831,0.988325671229928
30,-0.05907101520669533,-0.003643740625651204,-0.00797101449275367,-0.061606013520994686,1.0968068211001478,-1.3972077460156638,0.4391304347826087,-0.061606013520994686,0.0,0.0,-0.15340686660136052,0.9881631106652142
31,-0.05874334408495607,-0.003643740625651204,-0.007971014492753614,-0.06194877657251442,1.1558778363068432,-1.4961439601649547,0.4471014492753624,-0.06194877657251442,0.0,0.0,-0.15425357468314602,0.98803129236754
32,-0.05849969723777604,-0.003643740625651204,-0.007971014492753614,-0.062206124862229185,1.2146211803917992,-1.595872242342189,0.455072463768116,-0.062206124862229185,0.0,0.0,-0.15488921312270834,0.9879318456544602
33,-0.058340074665154784,-0.003643740625651204,-0.007971014492753614,-0.062375884693034504,1.2731208776295753,-1.6961894835852567,0.4630434782608696,-0.062375884693034504,0.0,0.0,-0.1553084770186005,0.987866021769229
34,-0.0582644763670932,-0.003643740625651204,-0.00797101449275367,-0.06245660738300979,1.33146095229473,-1.7968925749320512,0.4710144927536232,-0.06245660738300979,0.0,0.0,-0.15550783186123537,0.9878346593584464
35,-0.05827290234358862,-0.003643740625651204,-0.007971014492753614,-0.06244759992522632,1.3897254286618232,-1.8977784074204638,0.4789855072463769,-0.06244759992522632,0.0,0.0,-0.155485587124331,0.987838160933562
36,-0.0583653525946457,-0.003643740625651204,-0.007971014492753614,-0.062348939781565874,1.4479983310054119,-1.9986438720883863,0.4869565217391305,-0.062348939781565874,0.0,0.0,-0.1552419317600324,0.9878764814608219
37,-0.05854182712025913,-0.003643740625651204,-0.007971014492753614,-0.062161473225065406,1.5063636836000576,-2.099285859973711,0.4949275362318841,-0.062161473225065406,0.0,0.0,-0.15477893022210915,0.9879491296414504
38,-0.058802325920433995,-0.003643740625651204,-0.007971014492753614,-0.061886797296537024,1.5649055107203167,-2.1995012621143304,0.5028985507246377,-0.061886797296537024,0.0,0.0,-0.1541004791716662,0.988055181818841
39,-0.059146848995165646,-0.003643740625651204,-0.007971014492753614,-0.06152722608854787,1.6237078366407507,-2.299086969548135,0.5108695652173914,-0.06152722608854787,0.0,0.0,-0.15321222654096506,0.9881933078291717
40,-0.059575396344458076,-0.003643740625651204,-0.007971014492753614,-0.06108574267196,1.6828546856359163,-2.3978398733130177,0.518840579710145,-0.06108574267196,0.0,0.0,-0.1521214560484752,0.988361807543013
41,-0.060087967968308176,-0.003643740625651204,-0.007971014492753614,-0.06056593850115355,1.7424300819803744,-2.495556864446872,0.5268115942028986,-0.06056593850115355,0.0,0.0,-0.15083694148959137,0.9885586563689914
42,-0.060684563866717056,-0.003643740625651204,-0.007971014492753614,-0.059971942543849105,1.8025180499486826,-2.5920348339875865,0.5347826086956522,-0.059971942543849105,0.0,0.0,-0.14936877610312238,0.9887815576382153
43,-0.061365184039686715,-0.003643740625651204,-0.007971014492753614,-0.05930834266098678,1.8632026138153996,-2.6870706729730536,0.5427536231884058,-0.05930834266098678,0.0,0.0,-0.1477281829887249,0.9890279995788035
44,-0.06212982848721338,-0.003643740625651204,-0.007971014492753614,-0.05858010190214295,1.9245677978550864,-2.780461272441169,0.5507246376811594,-0.05858010190214295,0.0,0.0,-0.1459273129019154,0.9892953145290978
45,-0.06297849720929971,-0.003643740625651204,-0.007971014492753725,-0.0577924723846358,1.9866976263422997,-2.87200352342982,0.558695652173913,-0.0577924723846358,0.0,0.0,-0.14397903578422727,0.9895807381182418
46,-0.06391119020594571,-0.003643740625651204,-0.007971014492753614,-0.05695090930145503,2.0496761235515994,-2.9614943169769026,0.5666666666666668,-0.05695090930145503,0.0,0.0,-0.14189673212134518,0.9898814663449776
47,-0.06492790747714983,-0.003643740625651204,-0.007971014492753614,-0.05606098737362185,2.113587313757545,-3.048730544120304,0.5746376811594204,-0.05606098737362185,0.0,0.0,-0.1396940897040168,0.9901947087829576
48,-0.06602864902291339,-0.003643740625651204,-0.007971014492753614,-0.05512832175137487,2.178515221234695,-3.1335090958979217,0.582608695652174,-0.05512832175137487,0.0,0.0,-0.13738491065123942,0.9905177365021542
49,-0.06721341484323506,-0.003643740625651204,-0.007971014492753614,-0.054158495002678116,2.2445438702576084,-3.2156268633476426,0.5905797101449276,-0.054158495002678116,0.0,0.0,-0.13498293270431236,0.9908479236888692
50,-0.06848220493811663,-0.003643740625651204,-0.007971014492753725,-0.05315699143409697,2.3117572851008434,-3.294880737507362,0.5985507246376812,-0.05315699143409697,0.0,0.0,-0.13250166787668935,0.9911827823413275
51,-0.06983501930755631,-0.003643740625651204,-0.007971014492753614,-0.05212913959318713,2.38023949003896,-3.371067609414971,0.606521739130435,-0.05212913959318713,0.0,0.0,-0.12995426060709084,0.991519989788438
52,-0.07127185795155677,-0.003643740625651204,-0.007971014492753614,-0.051080063424314245,2.4500745093465164,-3.4439843701083612,0.6144927536231886,-0.051080063424314245,0.0,0.0,-0.12735336666240812,0.9918574091066469
53,-0.07279272087011357,-0.003643740625651204,-0.007971014492753614,-0.050014642208019086,2.521346367298073,-3.5134279106254236,0.6224637681159422,-0.050014642208019086,0.0,0.0,-0.1247110532132888,0.992193102781123
54,-0.0743976080632307,-0.003643740625651204,-0.007971014492753614,-0.048937479118979645,2.5941390881681867,-3.5791951220040517,0.6304347826086958,-0.048937479118979645,0.0,0.0,-0.12203871978726487,0.9925253401665297
55,-0.07608651953090773,-0.003643740625651204,-0.007971014492753614,-0.04785287799612973,2.6685366962314174,-3.6410828952821372,0.6384057971014494,-0.04785287799612973,0.0,0.0,-0.11934703920987116,0.9928525994485976
56,-0.07785945527314198,-0.003643740625651204,-0.007971014492753614,-0.0467648277324688,2.744623215762325,-3.698888121497572,0.646376811594203,-0.0467648277324688,0.0,0.0,-0.11664591717969652,0.9931735648945291
57,-0.079716415289937,-0.003643740625651204,-0.007971014492753614,-0.04567699356033732,2.822482671035467,-3.752407691688247,0.6543478260869566,-0.04567699356033732,0.0,0.0,-0.11394446878755589,0.9934871202148127
58,-0.08165739958128881,-0.003643740625651204,-0.007971014492753614,-0.04459271442607412,2.902199086325404,-3.801438496892054,0.6623188405797102,-0.04459271442607412,0.0,0.0,-0.11125101007401977,0.9937923388502803
59,-0.08368240814720096,-0.003643740625651204,-0.007971014492753614,-0.04351500560991077,2.983856485906693,-3.845777428146887,0.6702898550724639,-0.04351500560991077,0.0,0.0,-0.10857306260995218,0.9940884719558393
60,-0.08579144098767211,-0.003643740625651204,-0.007971014492753614,-0.042446565745730226,3.067538894053894,-3.8852213764906356,0.6782608695652175,-0.042446565745730226,0.0,0.0,-0.10591736906568729,0.9943749347857693
61,-0.08798449810270181,-0.003643740625651204,-0.007971014492753614,-0.04138978742320991,3.153330335041566,-3.919567232961195,0.6862318840579711,-0.04138978742320991,0.0,0.0,-0.10328991778803676,0.9946512921035897
62,-0.09026157949229185,-0.003643740625651204,-0.007971014492753614,-0.04034677060481262,3.241314833144268,-3.9486118885964547,0.6942028985507247,-0.04034677060481262,0.0,0.0,-0.10069597451376287,0.9949172431497625
63,-0.09262268515643823,-0.003643740625651204,-0.007971014492753614,-0.03931933815522226,3.3315764126365597,-3.972152234434306,0.7021739130434783,-0.03931933815522226,0.0,0.0,-0.09814011949699841,0.9951726066090821
64,-0.09506702652222598,-0.003643740625651204,-0.007971014492753614,-0.03830937031483422,3.424199097792998,-3.9899851615126396,0.7101449275362319,-0.03830937031483422,0.0,0.0,-0.09562707851387937,0.9954172300371842
65,-0.09742861347526866,-0.003643740625651204,-0.007971014492753614,-0.03738165921955644,3.519266124315224,-4.001909467059297,0.7181159420289855,-0.03738165921955644,0.0,0.0,-0.0933181743704951,0.9956363383947765
66,-0.09933768154918532,-0.003643740625651204,-0.007971014492753614,-0.036663909731463266,3.6166947377904926,-4.008125190443502,0.7260869565217392,-0.036663909731463266,0.0,0.0,-0.09153148141686479,0.9958021831215446
67,-0.10074428917105038,-0.003643740625651204,-0.007971014492753614,-0.03615245153101221,3.716032419339678,-4.00972618984321,0.7340579710144928,-0.03615245153101221,0.0,0.0,-0.09025812895838775,0.9959184053711082
68,-0.10164843634085852,-0.003643740625651204,-0.007971014492753614,-0.035831157447627576,3.8167767085107283,-4.007927045466973,0.7420289855072464,-0.035831157447627576,0.0,0.0,-0.08945814319978389,0.9959905825936544
